425
415
414
414
406
397
395
387
386
386
378
369
359
342
323
313
312
312
312
312
312
312
303
303
312
303
303
303
303
312
312
312
303
303
303
293
285
285
285
285
285
285
285
285
283
268
242
241
230
241
228
228
228
230
242
245
257
257
257
254
240
225
211
200
200
200
200
200
200
200
196
181
167
161
171
171
171
171
171
171
171
166
152
143
143
137
128
128
128
123
108
94
86
86
79
65
44
16
-28
-69
-91
-115
-138
-162
-177
-193
-216
-247
-270
-286
-301
-308
-317
-332
-355
-377
-401
-422
-446
-476
-488
-507
-528
-552
-573
-597
-623
-638
-649
-667
-682
-700
-722
-752
-777
-792
-803
-806
-814
-817
-817
-817
-817
-817
-817
-809
-789
-776
-756
-751
-743
-749
-751
-760
-762
-771
-792
-804
-815
-826
-836
-838
-846
-847
-855
-856
-856
-848
-847
-847
-855
-856
-847
-847
-847
-829
-817
-817
-828
-838
-847
-847
-847
-847
-838
-837
-828
-828
-827
-817
-816
-793
-771
-749
-727
-705
-684
-672
-652
-639
-620
-620
-620
-618
-606
-593
-596
-610
-622
-631
-633
-642
-642
-642
-639
-631
-631
-631
-634
-642
-639
-628
-617
-608
-604
-593
-584
-563
-563
-563
-563
-563
-563
-558
-543
-528
-513
-498
-483
-467
-458
-452
-437
-422
-407
-398
-392
-377
-362
-353
-360
-375
-398
-413
-421
-421
-413
-413
-406
-383
-360
-345
-338
-330
-315
-300
-293
-293
-284
-268
-271
-278
-278
-278
-268
-252
-227
-216
-216
-216
-206
-190
-164
-133
-81
-19
20
79
151
212
259
288
301
317
321
335
340
347
363
382
401
427
439
456
474
507
520
536
546
548
555
564
588
599
600
593
600
608
609
617
618
626
627
635
636
644
651
659
667
667
674
678
682
690
682
690
690
690
690
697
697
688
667
666
660
666
659
658
652
650
634
626
619
627
627
625
617
606
592
592
593
599
592
590
583
583
581
572
565
563
557
554
548
545
536
530
528
519
507
492
486
486
489
495
495
495
495
498
504
504
504
507
513
513
513
513
513
513
509
500
495
495
491
486
482
477
477
477
473
464
455
450
440
432
427
423
428
432
437
436
432
426
423
428
432
432
426
417
408
404
404
398
389
386
386
386
386
379
370
367
361
351
342
333
310
279
260
246
242
254
268
271
282
285
285
285
285
285
292
294
302
303
303
295
286
272
271
271
271
258
257
243
242
242
242
242
229
200
186
171
157
135
114
99
71
42
29
27
0
-2
-32
-48
-78
-94
-111
-140
-154
-156
-170
-172
-187
-203
-218
-234
-249
-265
-280
-296
-311
-323
-326
-341
-357
-372
-387
-405
-432
-447
-462
-477
-492
-507
-522
-538
-553
-572
-598
-612
-623
-634
-642
-642
-642
-646
-653
-657
-664
-668
-679
-686
-681
-679
-686
-690
-697
-701
-708
-708
-708
-713
-724
-729
-729
-729
-735
-740
-740
-740
-735
-729
-724
-718
-713
-702
-697
-697
-690
-679
-675
-675
-681
-679
-668
-657
-653
-653
-653
-646
-635
-638
-642
-642
-642
-642
-642
-634
-631
-631
-639
-650
-661
-680
-702
-716
-727
-729
-729
-738
-740
-740
-732
-729
-721
-718
-718
-728
-729
-729
-720
-728
-720
-728
-739
-750
-742
-740
-740
-740
-720
-708
-687
-675
-654
-663
-664
-674
-664
-664
-664
-664
-664
-658
-653
-642
-641
-620
-631
-620
-619
-593
-591
-562
-546
-518
-517
-503
-500
-473
-473
-473
-473
-471
-456
-441
-426
-411
-393
-366
-345
-303
-266
-207
-160
-113
-67
-24
7
35
68
107
136
161
175
189
208
228
228
228
233
252
278
297
306
319
337
356
374
393
411
430
452
479
502
527
559
589
617
634
654
674
686
693
701
709
720
732
739
743
747
759
766
766
766
766
770
774
769
762
754
751
746
743
738
731
723
720
720
720
715
708
705
700
697
692
679
669
661
654
652
657
665
667
661
654
640
629
620
611
602
600
600
593
577
560
549
540
532
523
514
513
520
506
496
503
512
513
513
529
530
530
522
513
521
530
539
547
548
539
522
513
504
508
513
513
512
504
504
504
504
503
495
494
486
486
485
477
476
459
449
441
441
440
432
431
423
423
424
432
430
421
414
415
421
415
421
414
416
421
414
411
404
402
393
383
377
374
370
377
374
365
355
349
346
343
349
346
336
331
331
323
312
312
312
312
308
299
294
294
290
278
271
271
271
264
257
257
250
242
242
242
227
199
170
141
120
114
106
100
100
100
100
100
108
114
114
114
105
100
100
100
90
86
76
71
71
71
61
47
33
39
43
32
29
7
0
0
-24
-43
-70
-89
-105
-133
-151
-179
-198
-226
-257
-288
-331
-377
-396
-424
-455
-485
-502
-530
-560
-590
-628
-651
-673
-685
-696
-707
-718
-729
-729
-751
-762
-773
-784
-784
-784
-784
-773
-773
-763
-774
-785
-796
-807
-829
-848
-867
-885
-903
-913
-932
-950
-968
-976
-972
-948
-948
-950
-958
-958
-962
-990
-1019
-1053
-1086
-1078
-1035
-994
-1002
-1031
-1032
-1004
-981
-1001
-1028
-1046
-1041
-1025
-1002
-973
-964
-960
-967
-973
-985
-982
-966
-939
-917
-911
-918
-933
-936
-919
-899
-889
-884
-884
-876
-853
-829
-817
-817
-812
-806
-806
-806
-801
-795
-795
-790
-784
-784
-790
-795
-789
-790
-795
-801
-806
-806
-800
-789
-778
-760
-751
-745
-740
-740
-740
-740
-740
-740
-740
-740
-726
-718
-726
-737
-740
-748
-759
-754
-735
-721
-718
-727
-729
-729
-729
-729
-729
-721
-710
-699
-688
-686
-677
-666
-655
-634
-622
-585
-553
-522
-492
-462
-419
-387
-330
-282
-235
-203
-172
-155
-111
-79
-33
-1
55
112
170
213
242
271
292
312
331
359
378
405
433
461
496
514
531
539
540
549
566
575
584
593
602
608
599
592
592
592
592
595
611
620
625
618
620
627
629
637
646
652
652
652
652
652
654
663
679
690
687
682
684
695
707
715
720
720
723
736
751
748
743
746
748
737
722
706
697
694
686
679
674
674
674
671
663
659
663
667
663
652
640
631
627
627
627
622
618
613
604
600
600
595
581
569
560
557
557
562
560
551
542
539
545
548
542
539
539
539
539
539
533
530
524
521
521
515
513
506
497
488
479
471
461
452
443
441
434
424
423
423
415
414
421
423
415
405
404
404
396
387
377
368
359
350
340
331
331
331
331
331
331
312
321
321
321
321
321
312
312
303
312
303
294
293
285
285
285
285
282
257
255
244
255
241
226
212
200
202
216
226
211
200
200
197
180
154
143
139
128
128
128
128
128
128
128
132
147
157
161
171
167
152
138
128
128
128
128
123
114
109
100
100
105
120
128
122
114
114
114
102
79
65
57
57
50
36
15
0
-15
-46
-77
-108
-139
-162
-178
-193
-209
-224
-240
-264
-295
-326
-356
-386
-407
-423
-447
-458
-477
-488
-488
-488
-488
-488
-508
-518
-529
-554
-574
-608
-628
-639
-658
-680
-694
-705
-708
-716
-718
-718
-718
-718
-727
-721
-718
-710
-708
-708
-698
-697
-697
-697
-697
-706
-717
-728
-739
-740
-740
-740
-750
-761
-772
-783
-784
-784
-784
-774
-773
-763
-762
-773
-784
-795
-795
-795
-784
-773
-762
-762
-751
-740
-729
-718
-708
-707
-697
-696
-685
-675
-674
-664
-662
-656
-676
-687
-697
-697
-698
-706
-695
-684
-673
-662
-648
-629
-617
-608
-605
-597
-611
-623
-631
-631
-631
-631
-631
-631
-631
-631
-628
-616
-603
-588
-573
-563
-558
-548
-543
-533
-533
-539
-542
-533
-527
-524
-527
-518
-518
-518
-512
-510
-525
-540
-541
-533
-541
-548
-541
-518
-488
-473
-466
-458
-458
-442
-420
-405
-382
-343
-306
-284
-259
-219
-173
-135
-114
-89
-58
-17
37
94
151
209
257
286
306
331
359
374
390
402
411
420
429
439
448
464
482
500
504
511
520
514
506
504
504
497
488
486
494
510
520
529
530
538
539
539
539
531
538
539
539
531
522
530
547
565
565
565
574
574
583
583
578
574
574
565
574
583
592
592
591
583
583
583
583
583
582
574
573
567
583
584
592
592
593
599
592
593
600
600
600
600
602
607
599
586
563
554
548
548
550
557
552
534
519
513
518
530
530
527
521
521
518
513
513
513
513
506
495
492
486
486
490
495
499
500
495
491
486
482
473
469
469
469
469
469
464
455
446
436
427
423
423
418
408
399
395
390
386
381
377
371
367
362
358
358
358
352
349
343
346
355
358
352
343
340
340
340
333
337
333
331
331
331
331
331
331
324
321
321
314
312
312
312
312
305
303
303
303
303
303
295
294
286
285
272
271
271
271
271
271
258
243
242
242
229
214
200
200
200
214
214
228
221
214
200
214
214
214
215
228
229
241
227
214
213
200
198
185
184
171
169
159
171
171
171
169
157
154
143
140
128
128
128
128
131
143
143
139
128
125
110
104
110
96
77
61
76
81
67
52
43
43
28
0
0
-11
-36
-52
-73
-98
-114
-136
-148
-151
-176
-205
-245
-269
-284
-300
-315
-330
-353
-376
-391
-406
-436
-474
-504
-526
-549
-571
-594
-615
-632
-648
-659
-664
-664
-664
-664
-670
-681
-699
-714
-725
-736
-747
-751
-751
-758
-762
-770
-781
-784
-784
-792
-810
-817
-809
-798
-787
-784
-776
-773
-773
-773
-773
-773
-773
-765
-762
-762
-762
-753
-742
-740
-740
-740
-731
-729
-739
-750
-761
-762
-762
-752
-751
-751
-771
-773
-773
-773
-773
-763
-762
-762
-762
-762
-762
-762
-762
-762
-762
-751
-751
-740
-729
-729
-729
-729
-729
-718
-718
-708
-717
-708
-706
-697
-697
-698
-708
-708
-706
-697
-697
-698
-706
-697
-697
-697
-697
-694
-686
-686
-686
-683
-670
-653
-650
-639
-631
-631
-631
-631
-631
-631
-628
-620
-616
-599
-578
-573
-568
-578
-578
-578
-578
-578
-578
-584
-593
-587
-584
-593
-600
-608
-595
-578
-572
-563
-549
-519
-489
-459
-429
-399
-361
-323
-300
-285
-278
-261
-230
-199
-168
-146
-130
-114
-99
-74
-52
-37
-12
18
46
75
104
142
185
209
223
219
224
238
252
267
271
281
291
300
316
328
344
356
372
391
402
426
439
456
467
476
492
509
527
537
546
548
548
548
548
548
540
547
548
556
564
573
582
591
608
626
643
651
652
644
636
636
644
644
636
640
644
652
652
651
644
644
636
636
636
635
626
617
600
590
573
565
564
554
538
530
531
542
558
567
573
567
574
574
574
574
576
585
590
579
561
548
546
539
539
537
530
528
524
528
519
510
504
501
492
486
486
483
477
471
460
456
450
450
443
428
423
423
419
410
400
395
391
386
386
382
381
386
386
381
372
367
367
367
363
358
363
362
358
358
358
358
353
349
349
355
358
353
349
349
355
358
352
343
328
321
309
290
275
261
257
257
267
271
271
260
257
257
267
281
285
285
292
294
294
286
274
259
245
231
228
228
228
228
228
228
216
214
214
214
188
185
172
171
171
171
171
185
185
172
171
157
143
143
128
100
71
57
43
42
28
0
0
-3
-49
-94
-109
-126
-158
-200
-204
-233
-252
-297
-325
-344
-388
-420
-461
-476
-493
-518
-521
-533
-536
-551
-566
-585
-608
-605
-593
-597
-614
-636
-659
-678
-689
-700
-711
-718
-712
-693
-682
-668
-649
-638
-635
-642
-646
-653
-657
-664
-664
-668
-675
-675
-679
-690
-701
-703
-697
-692
-691
-697
-702
-708
-713
-724
-735
-746
-751
-746
-746
-751
-757
-756
-745
-740
-746
-751
-758
-762
-762
-762
-756
-745
-740
-747
-758
-755
-751
-751
-744
-733
-715
-700
-682
-667
-656
-645
-650
-653
-661
-664
-664
-664
-672
-675
-666
-655
-653
-661
-664
-664
-655
-653
-653
-662
-655
-653
-644
-633
-622
-610
-608
-595
-593
-580
-605
-619
-620
-620
-630
-631
-641
-621
-595
-579
-564
-535
-504
-474
-459
-429
-414
-368
-338
-308
-293
-277
-262
-246
-215
-198
-151
-105
-57
5
62
118
161
203
231
257
258
274
296
312
312
312
314
323
332
342
347
340
338
331
331
335
355
381
402
425
434
441
446
462
469
471
477
480
486
489
495
492
489
495
495
495
501
516
521
525
530
534
539
543
548
551
557
560
561
557
557
561
569
574
574
574
570
570
574
574
569
570
574
574
574
579
583
583
578
574
574
579
588
597
595
592
592
586
577
568
565
565
565
565
565
565
565
559
550
541
526
515
506
504
504
510
513
519
521
521
514
506
511
520
521
521
514
513
505
504
504
496
487
479
477
477
477
485
494
495
487
478
477
469
460
442
450
441
450
441
450
441
441
441
441
432
423
423
423
422
414
414
414
422
414
413
403
395
394
386
386
387
395
394
384
377
375
367
366
357
349
347
340
340
340
338
328
321
324
328
319
312
312
310
306
312
315
319
309
300
294
297
300
291
285
285
285
285
279
271
271
260
242
242
248
269
279
265
250
242
236
221
200
185
185
178
178
185
193
200
200
192
178
171
171
171
171
171
171
163
148
143
134
137
134
119
114
105
100
100
100
109
114
104
80
61
57
57
47
43
32
29
29
29
29
29
29
29
6
-24
-55
-74
-102
-120
-149
-180
-198
-213
-255
-288
-345
-366
-395
-412
-427
-428
-442
-471
-501
-517
-518
-546
-562
-577
-593
-619
-631
-642
-642
-653
-653
-664
-658
-653
-653
-664
-675
-675
-674
-665
-686
-686
-686
-686
-698
-708
-706
-698
-708
-709
-720
-729
-731
-740
-744
-764
-773
-773
-771
-760
-753
-764
-773
-771
-760
-749
-740
-740
-738
-729
-732
-740
-740
-740
-737
-729
-729
-729
-729
-726
-718
-718
-711
-689
-667
-653
-657
-664
-668
-675
-675
-675
-675
-670
-664
-664
-673
-690
-697
-702
-708
-702
-697
-697
-691
-680
-675
-675
-675
-680
-686
-691
-691
-686
-686
-680
-675
-662
-653
-646
-635
-617
-608
-599
-593
-593
-584
-578
-578
-588
-583
-588
-603
-608
-608
-608
-608
-608
-608
-608
-608
-597
-593
-582
-578
-578
-567
-563
-563
-552
-525
-494
-464
-434
-416
-413
-413
-401
-398
-386
-396
-385
-370
-342
-325
-296
-279
-250
-219
-202
-186
-156
-140
-153
-154
-154
-139
-124
-108
-78
-31
0
50
100
157
186
215
243
257
272
296
331
340
350
361
388
406
423
425
441
445
470
479
488
496
505
514
521
521
521
523
532
539
541
550
560
574
576
581
578
592
592
589
580
572
565
565
568
574
577
583
583
586
595
600
604
609
612
615
613
615
613
614
606
600
600
600
604
605
596
588
583
583
579
574
574
570
565
565
570
574
569
565
561
552
538
525
516
513
513
513
513
507
504
504
498
490
486
486
486
480
472
463
453
450
438
432
438
441
435
425
423
423
423
423
423
423
416
414
414
414
414
414
406
404
397
395
418
415
390
370
375
393
387
378
377
385
386
386
377
377
368
367
367
367
367
359
358
358
358
349
349
354
358
349
330
321
322
331
330
321
312
312
303
303
302
294
294
294
293
285
283
271
269
257
257
257
254
242
242
242
242
245
254
242
239
228
228
228
232
242
246
257
253
238
224
210
195
181
171
171
171
171
171
176
190
200
200
200
200
194
185
185
185
185
179
165
151
136
122
108
93
72
43
15
0
-23
-62
-93
-124
-163
-210
-240
-255
-279
-310
-332
-347
-371
-401
-431
-461
-500
-537
-576
-610
-627
-631
-631
-638
-656
-656
-660
-671
-690
-704
-708
-715
-726
-729
-729
-737
-740
-740
-740
-749
-751
-760
-762
-754
-760
-771
-773
-764
-753
-742
-749
-751
-751
-751
-761
-762
-762
-753
-751
-751
-741
-740
-730
-729
-719
-718
-698
-686
-686
-686
-696
-697
-697
-697
-697
-686
-680
-675
-675
-686
-686
-686
-686
-697
-696
-686
-686
-686
-697
-698
-708
-709
-720
-729
-729
-728
-717
-708
-708
-708
-708
-708
-708
-708
-705
-697
-694
-686
-688
-694
-688
-697
-699
-705
-699
-702
-680
-658
-639
-628
-617
-604
-598
-612
-624
-627
-620
-620
-620
-620
-610
-588
-573
-558
-554
-563
-569
-578
-572
-557
-548
-542
-533
-527
-511
-489
-466
-451
-443
-443
-436
-421
-398
-376
-361
-338
-315
-292
-269
-254
-238
-231
-214
-173
-118
-65
-1
63
112
155
189
209
223
219
223
238
252
266
261
257
257
267
281
298
303
310
319
328
338
340
347
342
347
356
366
367
382
393
395
395
403
404
412
414
421
431
448
458
468
469
477
485
494
495
495
495
495
503
495
503
504
512
504
504
495
504
513
521
513
522
530
530
530
521
521
521
513
513
513
513
513
521
521
520
513
513
513
513
514
520
513
511
505
513
513
511
504
504
506
513
511
504
502
497
502
500
513
515
521
519
515
521
521
521
524
536
548
545
539
539
539
536
524
509
504
500
495
495
495
495
491
486
482
474
469
464
460
460
455
446
437
427
423
423
418
414
409
404
404
404
409
419
423
423
417
414
414
414
414
414
414
414
419
411
398
389
386
386
380
370
367
361
358
352
349
342
340
347
349
349
349
349
356
351
342
332
331
323
321
321
321
321
321
321
321
313
312
312
312
304
295
285
285
285
285
272
258
243
242
242
229
228
228
214
200
185
185
185
185
186
199
185
171
170
157
157
157
157
156
141
128
125
97
66
25
0
-4
-31
-31
-31
-26
0
0
0
-6
-34
-46
-53
-80
-96
-115
-146
-177
-204
-228
-270
-297
-313
-328
-347
-373
-393
-423
-453
-478
-498
-523
-544
-569
-589
-617
-639
-653
-661
-679
-690
-701
-712
-718
-723
-729
-729
-734
-740
-745
-756
-762
-767
-773
-773
-773
-773
-773
-768
-762
-756
-751
-745
-746
-751
-751
-758
-762
-756
-751
-751
-751
-758
-762
-762
-762
-769
-780
-784
-791
-795
-795
-795
-788
-777
-766
-755
-744
-740
-740
-732
-729
-729
-738
-740
-740
-723
-718
-718
-727
-721
-718
-718
-710
-708
-698
-697
-687
-686
-667
-645
-623
-620
-610
-608
-608
-608
-608
-608
-608
-594
-593
-607
-594
-593
-579
-564
-534
-519
-518
-518
-503
-488
-489
-503
-503
-504
-519
-533
-533
-532
-517
-503
-505
-518
-518
-517
-502
-490
-501
-490
-501
-486
-471
-456
-441
-428
-426
-413
-411
-395
-383
-380
-368
-365
-353
-346
-323
-323
-320
-304
-289
-273
-258
-238
-211
-196
-175
-139
-93
-41
10
48
101
144
171
171
166
157
157
163
177
191
206
214
214
214
220
241
257
263
264
257
257
257
264
282
308
326
340
354
363
372
382
391
400
415
428
437
447
456
470
483
492
490
486
486
492
495
501
498
501
504
510
507
510
513
513
513
519
521
521
515
513
506
497
481
477
484
493
495
488
486
493
502
504
504
511
513
513
520
521
514
513
513
513
513
513
513
521
513
513
513
521
521
513
504
495
495
504
499
495
495
495
495
495
486
487
495
495
495
495
495
496
504
505
513
512
504
503
495
495
495
496
505
511
504
502
493
485
476
469
469
471
475
469
471
477
477
477
477
475
469
469
469
469
466
457
447
441
441
441
441
441
438
432
428
423
419
414
410
401
387
377
377
381
382
381
386
386
386
382
377
377
372
367
363
354
344
340
335
331
331
331
325
316
307
303
303
303
297
294
294
294
288
276
271
271
271
261
257
257
257
257
247
242
232
218
214
203
200
189
185
175
171
160
146
143
143
131
128
128
128
140
131
128
128
128
116
102
87
73
71
84
86
86
60
44
4
0
-58
-91
-122
-123
-123
-108
-108
-93
-108
-108
-123
-139
-185
-201
-247
-263
-294
-326
-370
-401
-445
-476
-505
-520
-538
-580
-595
-608
-610
-621
-634
-653
-654
-665
-676
-684
-677
-686
-688
-697
-697
-694
-686
-688
-697
-699
-710
-721
-729
-729
-732
-740
-740
-744
-755
-762
-762
-762
-766
-773
-770
-762
-762
-766
-769
-758
-747
-736
-729
-729
-729
-729
-725
-709
-697
-692
-686
-681
-675
-670
-659
-653
-648
-642
-642
-642
-642
-648
-653
-659
-664
-670
-675
-681
-692
-697
-697
-697
-690
-692
-697
-703
-708
-708
-708
-714
-718
-726
-729
-729
-722
-711
-700
-689
-686
-686
-693
-697
-704
-708
-708
-699
-697
-680
-666
-655
-653
-644
-642
-642
-633
-622
-610
-584
-566
-551
-548
-548
-535
-533
-546
-548
-548
-548
-535
-520
-505
-517
-532
-533
-519
-518
-504
-503
-503
-489
-474
-459
-444
-428
-398
-368
-353
-338
-307
-277
-261
-246
-230
-214
-184
-167
-138
-121
-88
-41
3
30
45
59
73
90
116
133
162
188
205
231
245
257
260
274
287
296
303
303
305
312
315
319
312
312
312
318
336
352
364
385
413
438
453
463
472
477
481
486
490
498
504
507
513
516
525
534
535
526
525
530
526
517
513
513
517
521
517
517
521
521
526
530
530
530
530
530
530
525
521
521
527
530
541
548
553
557
562
565
565
571
574
574
568
559
551
554
563
565
565
559
550
548
548
548
541
532
523
528
544
548
548
541
532
530
523
521
521
529
523
521
521
529
523
514
513
513
520
521
521
521
513
513
521
521
521
521
521
513
513
504
495
469
464
460
460
460
469
469
477
469
477
477
477
478
486
477
468
460
459
449
441
441
440
432
431
423
421
414
414
412
404
404
404
406
411
404
406
414
414
414
414
416
418
404
402
395
392
380
362
346
343
352
355
349
346
343
346
336
331
331
331
331
327
314
303
295
279
271
265
250
236
228
221
214
214
207
200
192
185
178
179
185
185
178
171
171
171
163
149
143
143
134
120
105
91
86
77
62
48
33
10
0
-21
-62
-98
-129
-150
-165
-181
-196
-212
-250
-285
-316
-357
-403
-436
-455
-470
-485
-476
-473
-485
-501
-491
-488
-501
-529
-559
-563
-563
-576
-591
-606
-619
-620
-630
-641
-662
-674
-675
-675
-664
-664
-664
-674
-675
-675
-675
-675
-686
-680
-675
-675
-664
-664
-675
-686
-686
-686
-686
-697
-708
-708
-719
-729
-728
-718
-718
-717
-708
-706
-697
-695
-686
-686
-686
-686
-688
-695
-686
-683
-675
-675
-675
-675
-672
-664
-664
-664
-664
-661
-653
-653
-650
-639
-628
-620
-620
-620
-616
-598
-578
-578
-578
-584
-593
-593
-593
-587
-572
-569
-584
-587
-572
-557
-555
-563
-563
-563
-563
-570
-578
-578
-564
-548
-548
-548
-541
-541
-548
-548
-548
-548
-540
-533
-533
-533
-525
-518
-518
-518
-527
-533
-533
-533
-524
-499
-488
-498
-513
-508
-493
-488
-488
-478
-473
-473
-473
-463
-447
-443
-443
-455
-458
-447
-432
-417
-413
-413
-401
-386
-383
-383
-371
-344
-326
-311
-308
-269
-236
-204
-187
-158
-140
-111
-80
-49
-4
0
27
55
84
113
141
170
213
242
270
284
303
317
331
340
349
359
368
377
386
396
405
414
423
433
451
461
478
487
495
495
496
504
504
504
504
504
505
513
514
523
530
532
539
537
530
530
530
532
539
541
545
539
539
539
539
539
542
548
545
539
539
539
536
527
518
513
513
516
521
521
518
513
513
509
500
499
504
504
504
500
495
491
482
482
491
499
499
495
495
495
490
491
500
504
504
509
518
521
516
513
513
513
513
507
504
498
495
489
481
477
472
469
469
469
469
475
477
465
453
444
441
434
432
432
432
439
441
448
450
450
443
441
441
449
443
441
433
440
441
433
416
405
412
414
414
414
414
397
395
395
395
395
386
386
377
377
377
368
367
367
367
367
367
358
358
349
349
339
331
331
340
339
330
321
320
302
293
285
283
271
271
269
257
257
257
254
240
228
228
228
225
214
211
200
196
185
182
175
182
171
167
157
157
157
157
157
152
143
138
124
109
100
95
80
66
52
43
37
18
0
-12
-37
-59
-97
-143
-176
-199
-230
-268
-307
-345
-383
-420
-458
-488
-511
-526
-541
-548
-548
-556
-563
-563
-555
-557
-563
-572
-578
-578
-587
-602
-615
-633
-655
-671
-682
-693
-697
-704
-722
-744
-751
-759
-770
-781
-792
-795
-803
-798
-779
-765
-770
-773
-773
-765
-762
-762
-762
-762
-762
-771
-782
-793
-786
-784
-784
-784
-793
-795
-795
-795
-795
-795
-805
-816
-817
-817
-817
-817
-817
-807
-796
-795
-795
-785
-784
-773
-773
-773
-773
-773
-773
-773
-773
-773
-773
-773
-774
-784
-784
-785
-795
-794
-783
-773
-773
-773
-773
-775
-784
-784
-784
-784
-782
-773
-771
-762
-762
-760
-751
-751
-747
-727
-714
-694
-683
-672
-661
-653
-650
-639
-625
-608
-600
-574
-554
-529
-514
-503
-498
-488
-483
-473
-473
-473
-473
-468
-458
-458
-452
-443
-437
-428
-428
-428
-435
-443
-443
-437
-435
-450
-466
-466
-458
-443
-428
-428
-428
-421
-405
-382
-360
-345
-322
-291
-260
-220
-182
-151
-130
-114
-108
-98
-83
-58
-36
-11
0
38
76
95
109
124
138
143
143
153
157
167
182
196
200
210
225
239
242
253
257
279
292
301
303
303
318
344
364
391
411
429
440
457
468
469
469
477
485
486
494
503
512
529
530
539
539
556
565
565
557
557
557
557
557
565
565
548
557
557
556
548
548
557
566
574
574
574
573
564
558
565
564
555
548
548
548
548
548
548
546
541
548
546
537
530
530
530
528
519
510
504
504
504
501
498
501
495
492
489
495
495
492
486
486
486
483
477
477
474
465
456
450
450
458
469
469
461
446
441
445
450
446
446
455
460
464
464
455
441
422
409
399
400
404
404
399
390
391
395
395
401
404
404
399
395
389
386
386
386
386
380
371
361
358
358
358
365
361
358
358
358
358
358
351
349
342
340
333
323
321
321
321
321
321
321
321
321
314
304
303
303
303
303
295
302
303
303
303
311
312
312
304
294
294
294
294
285
285
285
294
285
278
271
271
271
270
257
256
242
242
242
242
243
255
241
227
214
214
214
214
212
200
200
200
197
185
185
185
185
185
183
171
168
154
143
139
125
114
111
96
78
53
31
-13
-64
-117
-148
-174
-190
-196
-180
-175
-190
-200
-206
-221
-243
-268
-283
-299
-314
-323
-330
-351
-375
-396
-426
-457
-480
-495
-517
-554
-585
-606
-631
-658
-686
-702
-719
-735
-752
-762
-762
-756
-751
-751
-751
-751
-745
-747
-751
-758
-762
-769
-780
-791
-795
-795
-802
-820
-828
-828
-828
-828
-828
-828
-835
-844
-853
-863
-872
-861
-849
-824
-809
-806
-814
-833
-845
-847
-847
-854
-864
-865
-865
-850
-847
-847
-855
-848
-839
-829
-828
-828
-818
-807
-796
-805
-806
-806
-806
-816
-817
-807
-806
-806
-817
-817
-806
-795
-784
-784
-784
-773
-762
-762
-751
-739
-717
-697
-707
-697
-708
-708
-719
-730
-740
-740
-739
-729
-728
-718
-717
-706
-695
-684
-673
-664
-664
-664
-662
-653
-650
-639
-631
-633
-642
-637
-620
-617
-608
-604
-589
-578
-578
-583
-593
-589
-569
-539
-508
-468
-413
-373
-337
-286
-230
-177
-121
-74
-28
17
60
97
126
155
177
185
185
192
206
221
242
264
287
308
317
317
317
317
312
317
326
336
345
359
378
397
421
437
452
465
479
497
515
533
550
568
591
618
633
641
644
649
652
657
659
659
659
665
667
672
680
694
697
697
697
697
697
697
691
684
676
674
674
681
682
682
676
674
681
682
682
675
674
674
674
674
674
667
660
652
644
636
644
644
644
636
627
627
614
600
592
592
600
591
583
574
565
557
565
565
565
565
564
556
547
539
541
557
555
547
539
540
548
546
537
530
530
530
528
521
520
511
500
486
486
486
486
486
484
477
475
469
469
471
477
477
475
469
466
456
444
429
419
414
414
414
417
423
423
423
419
414
414
418
423
423
423
418
409
400
391
386
386
391
390
386
391
390
386
386
386
381
371
367
367
373
371
367
367
367
362
358
352
349
349
349
349
349
349
343
334
331
331
331
331
331
331
331
331
324
321
314
319
321
321
314
305
296
286
273
271
271
271
271
271
271
259
244
230
216
214
201
200
187
185
185
199
186
185
199
200
200
186
185
185
185
185
185
178
171
171
171
156
142
128
128
128
127
112
83
52
-3
-35
-84
-144
-189
-218
-233
-247
-247
-247
-247
-249
-267
-298
-329
-356
-371
-386
-402
-420
-447
-465
-495
-526
-560
-597
-614
-634
-651
-684
-714
-736
-758
-780
-799
-810
-821
-828
-824
-813
-798
-780
-773
-773
-773
-773
-769
-762
-762
-767
-773
-773
-773
-773
-778
-789
-795
-790
-774
-757
-746
-740
-735
-729
-735
-740
-746
-745
-740
-734
-736
-740
-740
-747
-751
-751
-751
-751
-758
-762
-769
-773
-766
-762
-762
-769
-773
-773
-773
-781
-784
-792
-795
-795
-795
-795
-795
-795
-803
-806
-814
-817
-817
-808
-797
-786
-775
-773
-764
-753
-742
-731
-711
-708
-698
-706
-708
-727
-729
-739
-750
-761
-772
-783
-764
-752
-731
-729
-719
-698
-686
-664
-653
-631
-620
-608
-578
-563
-549
-563
-564
-578
-578
-579
-592
-578
-578
-578
-578
-580
-595
-609
-621
-630
-620
-620
-620
-618
-602
-559
-526
-486
-471
-456
-443
-443
-443
-440
-422
-392
-365
-350
-338
-335
-320
-304
-293
-289
-269
-242
-222
-191
-160
-129
-98
-52
10
43
86
129
167
196
219
234
248
268
288
298
307
316
325
339
357
376
390
404
418
431
446
455
464
473
477
477
477
482
482
482
491
505
513
518
521
526
535
539
550
562
576
588
592
586
577
574
568
571
574
580
583
583
583
583
577
568
559
550
541
545
561
572
574
574
574
574
574
567
565
572
574
574
567
565
565
565
565
558
557
549
548
540
539
539
539
539
531
522
521
530
530
522
521
521
521
521
530
530
526
521
530
530
530
521
521
521
521
512
503
494
486
477
477
477
477
477
476
469
469
467
460
460
460
460
460
458
450
452
458
450
448
437
423
423
423
420
414
414
416
423
420
411
402
392
386
386
383
377
377
377
377
373
367
367
367
360
349
349
349
345
340
340
336
331
327
321
317
312
317
321
321
321
317
308
308
317
321
317
307
303
308
312
312
307
308
312
318
316
312
307
303
314
316
312
306
297
300
303
303
303
297
287
285
285
285
275
261
257
267
260
257
246
242
231
228
217
225
217
225
217
202
188
174
159
133
104
88
86
73
71
71
84
98
100
87
72
58
44
29
2
0
-44
-76
-107
-123
-169
-185
-200
-216
-231
-247
-263
-279
-309
-325
-355
-385
-414
-429
-445
-461
-490
-503
-505
-518
-520
-537
-565
-580
-595
-612
-633
-645
-664
-666
-675
-677
-686
-686
-683
-677
-688
-697
-697
-702
-724
-743
-754
-762
-765
-773
-773
-773
-773
-773
-773
-773
-777
-788
-795
-791
-784
-780
-769
-762
-762
-767
-773
-773
-773
-778
-784
-784
-789
-795
-800
-811
-817
-822
-833
-842
-851
-865
-884
-893
-888
-884
-884
-889
-893
-898
-907
-911
-896
-873
-843
-828
-821
-817
-810
-799
-781
-759
-751
-744
-733
-722
-711
-700
-689
-686
-678
-675
-675
-667
-656
-653
-653
-645
-642
-634
-623
-620
-611
-597
-581
-566
-551
-536
-533
