354
364
373
382
390
398
405
412
418
423
428
433
436
440
443
445
447
448
449
449
449
449
448
447
446
445
443
441
439
436
434
431
428
425
422
418
415
411
407
402
398
392
387
381
375
368
360
352
344
334
324
314
303
291
279
266
253
239
225
210
195
181
166
151
136
121
107
93
79
65
52
40
28
16
5
-6
-16
-26
-36
-46
-55
-64
-73
-82
-92
-101
-110
-120
-130
-140
-150
-161
-172
-183
-195
-207
-219
-231
-243
-256
-269
-282
-295
-308
-321
-334
-347
-360
-373
-385
-398
-410
-422
-434
-446
-457
-469
-479
-490
-500
-509
-519
-527
-536
-543
-551
-557
-563
-569
-573
-578
-581
-584
-586
-587
-587
-587
-586
-584
-581
-578
-573
-568
-562
-555
-547
-538
-528
-517
-505
-493
-479
-465
-450
-434
-418
-400
-383
-364
-345
-325
-305
-285
-264
-243
-222
-201
-180
-158
-137
-116
-94
-73
-53
-32
-12
9
28
48
67
86
105
123
140
158
175
191
207
223
238
252
267
280
294
306
319
330
342
352
363
373
382
391
399
407
415
422
429
435
441
446
450
454
458
461
464
466
468
469
469
469
469
468
466
464
462
459
456
452
448
444
439
434
428
422
415
408
400
392
383
374
365
355
344
333
322
310
297
285
272
258
245
231
217
204
190
176
163
149
136
123
111
98
86
75
63
52
42
32
22
12
2
-7
-16
-25
-33
-42
-51
-60
-68
-77
-86
-95
-104
-113
-122
-132
-141
-151
-160
-170
-180
-189
-199
-209
-218
-228
-237
-246
-255
-264
-272
-280
-288
-296
-304
-311
-319
-326
-333
-340
-346
-353
-360
-367
-373
-380
-387
-394
-401
-408
-415
-422
-429
-436
-443
-450
-456
-463
-469
-474
-480
-485
-489
-493
-496
-498
-500
-501
-502
-501
-500
-498
-496
-492
-488
-484
-478
-472
-465
-458
-450
-441
-432
-422
-412
-402
-391
-379
-368
-355
-343
-330
-317
-304
-290
-276
-262
-248
-233
-219
-204
-189
-173
-158
-142
-127
-111
-95
-79
-64
-48
-32
-16
-1
15
31
46
62
77
93
108
123
138
153
168
182
197
211
226
240
254
267
281
294
307
320
332
344
355
366
376
386
395
404
412
419
425
431
436
440
444
447
449
451
452
453
453
452
452
450
449
446
444
441
439
435
432
428
424
420
416
411
407
401
396
390
384
378
371
363
355
347
338
329
319
309
298
287
275
263
251
238
225
212
199
185
172
159
146
133
120
108
95
84
73
62
51
42
32
23
14
6
-2
-9
-16
-23
-30
-37
-43
-50
-56
-63
-70
-76
-83
-90
-98
-105
-113
-121
-129
-137
-146
-154
-163
-172
-182
-191
-200
-210
-220
-229
-239
-248
-258
-267
-276
-285
-294
-302
-310
-318
-326
-333
-340
-346
-352
-357
-362
-367
-370
-374
-376
-378
-379
-380
-380
-378
-376
-374
-370
-365
-359
-353
-345
-336
-326
-316
-304
-291
-277
-263
-247
-231
-214
-196
-177
-158
-138
-118
-97
-76
-55
-33
-12
10
32
53
75
96
117
137
157
177
196
214
232
249
265
281
295
309
322
334
345
355
364
373
380
387
392
397
401
404
406
408
409
409
409
408
407
404
402
399
395
391
387
382
377
371
364
358
350
343
334
326
317
307
297
286
276
264
253
241
228
216
203
191
178
165
152
139
126
113
101
88
76
64
52
40
28
16
5
-7
-18
-30
-42
-53
-65
-77
-89
-101
-114
-126
-139
-151
-164
-176
-189
-201
-213
-225
-237
-248
-258
-268
-276
-284
-291
-297
-302
-305
-307
-308
-307
-304
-300
-295
-287
-278
-268
-256
-243
-229
-213
-197
-179
-161
-142
-122
-103
-83
-63
-44
-25
-6
12
29
46
61
76
89
102
113
123
132
141
148
154
159
164
168
171
173
175
176
177
177
177
176
176
174
173
171
169
166
163
160
156
152
147
142
136
129
122
114
105
95
85
74
62
50
37
22
8
-8
-24
-41
-59
-77
-95
-114
-134
-154
-174
-194
-215
-235
-256
-277
-297
-318
-338
-358
-377
-396
-415
-432
-449
-466
-481
-495
-509
-521
-532
-542
-550
-558
-563
-568
-571
-572
-572
-571
-568
-563
-558
-550
-541
-531
-519
-506
-492
-477
-460
-442
-423
-403
-383
-361
-339
-316
-292
-268
-244
-219
-194
-169
-143
-118
-93
-68
-43
-18
6
30
53
76
98
120
141
162
181
200
219
236
253
269
284
299
312
325
337
348
359
369
378
386
393
400
406
411
416
420
423
426
428
429
430
430
430
430
429
427
425
423
421
418
414
411
407
403
398
394
389
384
379
373
367
361
354
348
340
333
325
316
307
298
288
278
267
256
244
232
220
207
194
180
167
153
140
126
113
100
87
75
63
52
42
32
23
14
7
-2
-7
-12
-17
-21
-25
-29
-31
-34
-36
-38
-40
-42
-44
-47
-49
-52
-55
-59
-63
-67
-72
-78
-84
-91
-99
-108
-117
-127
-137
-148
-160
-173
-186
-200
-214
-229
-244
-259
-275
-291
-307
-323
-339
-356
-372
-388
-404
-420
-435
-451
-465
-480
-494
-508
-521
-533
-545
-557
-568
-578
-587
-596
-603
-610
-617
-622
-626
-630
-632
-634
-634
-634
-633
-630
-627
-622
-617
-611
-603
-595
-586
-576
-565
-553
-540
-527
-512
-497
-481
-465
-448
-430
-412
-393
-374
-354
-334
-314
-294
-273
-252
-231
-210
-189
-168
-147
-127
-106
-86
-66
-46
-27
-8
11
30
48
66
84
102
119
136
152
168
184
200
215
230
245
259
273
286
299
311
323
335
345
356
365
374
383
390
398
404
410
416
421
425
429
432
435
438
440
441
442
443
444
444
443
442
441
440
438
436
433
430
427
423
419
414
409
403
397
391
384
376
368
360
351
342
332
321
311
300
288
276
264
251
239
226
213
199
186
173
160
147
134
122
109
97
85
73
61
50
39
27
17
6
-5
-15
-26
-37
-48
-58
-70
-81
-93
-104
-117
-129
-142
-156
-170
-184
-199
-214
-229
-245
-261
-277
-294
-311
-328
-344
-361
-378
-395
-412
-428
-444
-459
-474
-488
-502
-514
-527
-538
-548
-558
-566
-573
-580
-585
-589
-592
-594
-595
-595
-593
-591
-587
-583
-577
-570
-561
-552
-542
-530
-518
-504
-490
-474
-458
-440
-422
-403
-384
-363
-343
-321
-300
-278
-256
-233
-211
-189
-167
-145
-124
-103
-82
-62
-42
-23
-4
15
32
50
67
83
99
115
130
145
160
174
188
201
215
228
240
252
264
276
287
298
308
318
327
336
345
353
361
369
376
382
389
395
400
406
411
416
420
425
429
433
437
440
444
447
449
452
454
456
457
458
459
459
458
457
455
452
448
444
438
432
425
417
408
398
386
374
361
348
333
318
302
285
268
251
233
215
198
180
162
144
127
110
93
77
61
46
31
17
3
-11
-24
-37
-50
-63
-75
-88
-100
-113
-126
-139
-152
-165
-179
-193
-208
-222
-237
-252
-267
-283
-298
-314
-329
-345
-360
-375
-390
-404
-418
-432
-445
-457
-469
-481
-491
-501
-510
-519
-526
-533
-539
-545
-550
-554
-557
-559
-561
-562
-563
-563
-562
-560
-558
-555
-552
-548
-544
-539
-534
-528
-522
-515
-508
-501
-493
-486
-478
-469
-461
-453
-445
-436
-428
-420
-412
-404
-396
-388
-380
-373
-365
-358
-351
-343
-336
-329
-321
-314
-306
-298
-290
-281
-272
-263
-254
-244
-234
-223
-212
-200
-189
-176
-164
-151
-137
-124
-110
-95
-81
-66
-52
-37
-21
-6
9
24
39
55
70
85
100
114
129
143
157
171
184
197
210
222
234
245
256
266
276
285
294
302
310
317
324
330
336
342
347
352
357
361
365
369
373
377
380
383
387
389
392
395
397
399
401
403
405
406
407
408
408
408
408
408
407
405
404
401
399
395
391
387
381
376
369
361
353
344
335
324
313
300
287
274
259
244
228
211
194
177
159
141
122
103
84
65
45
26
7
-12
-31
-50
-69
-88
-106
-125
-143
-160
-178
-195
-212
-229
-245
-261
-277
-292
-307
-321
-335
-349
-361
-374
-386
-397
-408
-418
-427
-436
-444
-451
-458
-464
-469
-474
-477
-480
-483
-484
-485
-486
-485
-484
-483
-480
-478
-474
-471
-467
-462
-457
-452
-447
-441
-435
-429
-423
-417
-410
-403
-396
-389
-381
-374
-366
-357
-348
-339
-329
-319
-308
-297
-285
-273
-260
-246
-232
-217
-202
-186
-170
-153
-136
-119
-102
-85
-67
-50
-33
-15
1
18
35
51
67
83
98
113
128
142
156
170
183
196
209
222
234
246
258
270
281
292
303
313
323
333
342
351
360
368
375
382
389
395
401
406
410
414
418
421
423
425
426
427
428
427
426
425
423
421
418
414
410
406
401
395
389
382
375
368
360
351
342
333
323
312
302
291
279
268
256
243
231
219
206
193
180
167
154
142
129
116
104
91
79
67
55
43
32
20
9
-2
-13
-23
-34
-44
-55
-65
-75
-86
-96
-106
-117
-127
-138
-149
-160
-171
-182
-194
-205
-217
-229
-242
-254
-267
-279
-292
-306
-319
-332
-346
-360
-374
-388
-402
-417
-431
-446
-461
-477
-492
-508
-524
-540
-557
-573
-590
-608
-625
-643
-660
-678
-696
-714
-732
-750
-768
-785
-803
-820
-837
-854
-870
-886
-901
-916
-931
-945
-959
-972
-984
-997
-1008
-1020
-1030
-1041
-1051
-1060
-1069
-1078
-1086
-1094
-1101
-1108
-1115
-1122
-1128
-1134
-1140
-1146
-1151
-1156
-1162
-1167
-1172
-1177
-1183
-1188
-1193
-1199
-1205
-1211
-1217
-1223
-1229
-1236
-1242
-1249
-1256
-1263
-1270
-1277
-1283
-1290
-1296
-1303
-1308
-1314
-1318
-1322
-1326
-1328
-1330
-1330
-1329
-1327
-1323
-1318
-1311
-1302
-1291
-1277
-1262
-1244
-1224
-1202
-1176
-1149
-1119
-1086
-1051
-1014
-974
-932
-889
-844
-798
-750
-701
-652
-603
-553
-504
-455
-407
-359
-313
-268
-225
-183
-142
-104
-67
-31
3
35
65
94
122
149
175
200
224
247
270
292
315
337
359
380
402
424
446
467
489
511
533
555
577
598
620
641
662
682
703
723
742
761
779
797
813
830
845
860
874
888
900
912
923
933
943
951
959
967
974
980
985
991
995
1000
1004
1008
1011
1015
1018
1022
1025
1029
1033
1037
1042
1046
1052
1057
1063
1070
1076
1083
1091
1099
1106
1114
1123
1131
1139
1147
1154
1161
1168
1174
1180
1185
1189
1192
1195
1196
1197
1197
1196
1193
1190
1186
1181
1176
1169
1162
1154
1145
1136
1126
1116
1105
1094
1083
1071
1059
1047
1035
1023
1011
999
987
974
962
949
937
924
911
898
885
871
858
843
829
814
798
782
765
748
730
712
692
673
652
631
610
588
565
543
519
496
472
448
424
400
376
352
328
305
282
260
238
217
196
176
157
138
120
103
87
72
57
43
29
17
4
-7
-19
-30
-40
-51
-61
-71
-82
-92
-103
-114
-125
-137
-149
-162
-175
-188
-202
-217
-232
-247
-263
-279
-296
-313
-330
-348
-365
-383
-401
-418
-436
-453
-470
-487
-503
-519
-535
-550
-564
-578
-591
-604
-616
-627
-637
-647
-656
-664
-672
-679
-685
-691
-696
-700
-704
-707
-710
-712
-714
-715
-716
-716
-716
-716
-715
-714
-712
-710
-708
-705
-702
-699
-695
-692
-688
-683
-679
-674
-670
-665
-660
-655
-650
-645
-640
-635
-630
-625
-620
-615
-610
-604
-599
-593
-587
-581
-575
-568
-560
-552
-544
-534
-525
-514
-503
-490
-478
-464
-450
-435
-419
-403
-386
-369
-351
-333
-315
-296
-277
-258
-239
-220
-201
-183
-164
-145
-126
-108
-89
-71
-53
-35
-18
-3
17
34
51
68
84
100
116
132
147
162
177
191
205
219
232
244
257
268
280
290
301
311
320
329
337
345
353
360
366
372
378
384
389
393
398
402
406
409
412
415
418
421
423
425
427
429
431
432
433
434
435
435
436
436
436
435
435
434
433
431
430
428
426
424
422
419
416
413
410
406
402
398
393
387
382
375
368
361
352
343
334
323
312
300
288
275
261
246
231
215
199
183
166
150
133
116
99
82
66
49
33
17
2
-14
-29
-44
-58
-73
-87
-101
-115
-129
-143
-157
-172
-186
-200
-214
-229
-243
-258
-272
-287
-301
-315
-329
-342
-356
-368
-381
-393
-405
-416
-427
-437
-447
-457
-466
-474
-483
-490
-498
-505
-512
-519
-525
-531
-537
-543
-549
-554
-560
-565
-571
