
0.0	-3.859	0.179
0.0005	-3.859	0.213
0.001	-3.859	0.245
0.0015	-3.859	0.248
0.002	-3.859	0.239
0.0025	-3.859	0.237
0.003	-3.859	0.237
0.0035	-3.859	0.236
0.004	-3.859	0.202
0.0045	-3.859	0.163
0.005	-3.859	0.108
0.0055	-3.859	0.045
0.006	-3.859	-0.012
0.0065	-3.859	-0.066
0.007	-3.859	-0.127
0.0075	-3.859	-0.166
0.008	-3.859	-0.216
0.0085	-3.859	-0.248
0.009	-3.859	-0.287
0.0095	-3.859	-0.296
0.01	-3.859	-0.308
0.0105	-3.859	-0.299
0.011	-3.859	-0.300
0.0115	-3.859	-0.303
0.012	-3.859	-0.286
0.0125	-3.859	-0.233
0.013	-3.859	-0.164
0.0135	-3.859	-0.109
0.014	-3.859	-0.051
0.0145	-3.859	-0.016
0.015	-3.859	0.038
0.0155	-3.859	0.087
0.016	-3.859	0.124
0.0165	-3.859	0.157
0.017	-3.859	0.208
0.0175	-3.859	0.246
0.018	-3.859	0.264
0.0185	-3.859	0.259
0.019	-3.859	0.256
0.0195	-3.859	0.258
0.02	-3.859	0.239
0.0205	-3.859	0.225
0.021	-3.859	0.175
0.0215	-3.859	0.110
0.022	-3.859	0.039
0.0225	-3.859	0.003
0.023	-3.859	-0.053
0.0235	-3.859	-0.126
0.024	-3.859	-0.174
0.0245	-3.859	-0.199
0.025	-3.859	-0.238
0.0255	-3.859	-0.281
0.026	-3.859	-0.301
0.0265	-3.859	-0.303
0.027	-3.859	-0.296
0.0275	-3.859	-0.288
0.028	-3.859	-0.279
0.0285	-3.859	-0.264
0.029	-3.859	-0.222
0.0295	-3.859	-0.162
0.03	-3.859	-0.112
0.0305	-3.859	-0.084
0.031	-3.859	-0.028
0.0315	-3.859	0.030
0.032	-3.859	0.075
0.0325	-3.859	0.115
0.033	-3.859	0.152
0.0335	-3.859	0.203
0.034	-3.859	0.233
0.0345	-3.859	0.261
0.035	-3.859	0.257
0.0355	-3.859	0.260
0.036	-3.859	0.246
0.0365	-3.859	0.245
0.037	-3.859	0.228
0.0375	-3.859	0.171
0.038	-3.859	0.112
0.0385	-3.859	0.071
0.039	-3.859	0.019
0.0395	-3.859	-0.037
0.04	-3.859	-0.090
0.0405	-3.859	-0.148
0.041	-3.859	-0.191
0.0415	-3.859	-0.228
0.042	-3.859	-0.267
0.0425	-3.859	-0.300
0.043	-3.859	-0.294
0.0435	-3.859	-0.301
0.044	-3.859	-0.294
0.0445	-3.859	-0.308
0.045	-3.859	-0.296
0.0455	-3.859	-0.255
0.046	-3.859	-0.208
0.0465	-3.859	-0.154
0.047	-3.859	-0.096
0.0475	-3.859	-0.044
0.048	-3.859	0.005
0.0485	-3.859	0.073
0.049	-3.859	0.106
0.0495	-3.859	0.160
0.05	-3.859	0.197
0.0505	-3.859	0.233
0.051	-3.859	0.258
0.0515	-3.859	0.273
0.052	-3.859	0.262
0.0525	-3.859	0.248
0.053	-3.859	0.224
0.0535	-3.859	0.218
0.054	-3.859	0.195
0.0545	-3.859	0.147
0.055	-3.859	0.086
0.0555	-3.859	0.044
0.056	-3.859	-0.003
0.0565	-3.859	-0.054
0.057	-3.859	-0.123
0.0575	-3.859	-0.178
0.058	-3.859	-0.218
0.0585	-3.859	-0.268
0.059	-3.859	-0.300
0.0595	-3.859	-0.297
0.06	-3.859	-0.294
0.0605	-3.859	-0.293
0.061	-3.859	-0.289
0.0615	-3.859	-0.275
0.062	-3.859	-0.246
0.0625	-3.859	-0.199
0.063	-3.859	-0.148
0.0635	-3.859	-0.100
0.064	-3.859	-0.065
0.0645	-3.859	-0.022
0.065	-3.859	0.017
0.0655	-3.859	0.039
0.066	-3.859	0.097
0.0665	-3.859	0.158
0.067	-3.859	0.193
0.0675	-3.859	0.228
0.068	-3.859	0.261
0.0685	-3.859	0.253
0.069	-3.859	0.243
0.0695	-3.859	0.244
0.07	-3.859	0.227
0.0705	-3.859	0.189
0.071	-3.859	0.163
0.0715	-3.859	0.113
0.072	-3.859	0.071
0.0725	-3.859	0.027
0.073	-3.859	-0.019
0.0735	-3.859	-0.091
0.074	-3.859	-0.139
0.0745	-3.859	-0.193
0.075	-3.859	-0.240
0.0755	-3.859	-0.276
0.076	-3.859	-0.278
0.0765	-3.859	-0.278
0.077	-3.859	-0.283
0.0775	-3.859	-0.290
0.078	-3.859	-0.304
0.0785	-3.859	-0.284
0.079	-3.859	-0.249
0.0795	-3.859	-0.190
0.08	-3.859	-0.139
0.0805	-3.859	-0.101
0.081	-3.859	-0.055
0.0815	-3.859	0.025
0.082	-3.859	0.077
0.0825	-3.859	0.117
0.083	-3.859	0.165
0.0835	-3.859	0.210
0.084	-3.859	0.248
0.0845	-3.859	0.263
0.085	-3.859	0.275
0.0855	-3.859	0.260
0.086	-3.859	0.256
0.0865	-3.859	0.229
0.087	-3.859	0.221
0.0875	-3.859	0.179
0.088	-3.859	0.111
0.0885	-3.859	0.061
0.089	-3.859	0.025
0.0895	-3.859	-0.037
0.09	-3.859	-0.094
0.0905	-3.859	-0.164
0.091	-3.859	-0.219
0.0915	-3.859	-0.262
0.092	-3.859	-0.298
0.0925	-3.859	-0.311
0.093	-3.859	-0.302
0.0935	-3.859	-0.299
0.094	-3.859	-0.294
0.0945	-3.859	-0.285
0.095	-3.859	-0.274
0.0955	-3.859	-0.235
0.096	-3.859	-0.183
0.0965	-3.859	-0.120
0.097	-3.859	-0.075
0.0975	-3.859	-0.030
0.098	-3.859	0.010
0.0985	-3.859	0.049
0.099	-3.859	0.093
0.0995	-3.859	0.147
0.1	-3.859	0.182
0.1005	-3.859	0.224
0.101	-3.859	0.258
0.1015	-3.859	0.260
0.102	-3.859	0.259
0.1025	-3.859	0.257
0.103	-3.859	0.240
0.1035	-3.859	0.210
0.104	-3.859	0.190
0.1045	-3.859	0.131
0.105	-3.859	0.082
0.1055	-3.859	0.034
0.106	-3.859	-0.014
0.1065	-3.859	-0.063
0.107	-3.859	-0.127
0.1075	-3.859	-0.184
0.108	-3.859	-0.223
0.1085	-3.859	-0.259
0.109	-3.859	-0.307
0.1095	-3.859	-0.299
0.11	-3.859	-0.297
0.1105	-3.859	-0.302
0.111	-3.859	-0.305
0.1115	-3.859	-0.297
0.112	-3.859	-0.278
0.1125	-3.859	-0.231
0.113	-3.859	-0.175
0.1135	-3.859	-0.108
0.114	-3.859	-0.046
0.1145	-3.859	0.007
0.115	-3.859	0.063
0.1155	-3.859	0.097
0.116	-3.859	0.135
0.1165	-3.859	0.175
0.117	-3.859	0.243
0.1175	-3.859	0.255
0.118	-3.859	0.260
0.1185	-3.859	0.253
0.119	-3.859	0.253
0.1195	-3.859	0.240
0.12	-3.859	0.246
0.1205	-3.859	0.210
0.121	-3.859	0.152
0.1215	-3.859	0.096
0.122	-3.859	0.051
0.1225	-3.859	0.010
0.123	-3.859	-0.053
0.1235	-3.859	-0.105
0.124	-3.859	-0.154
0.1245	-3.859	-0.204
0.125	-3.859	-0.245
0.1255	-3.859	-0.283
0.126	-3.859	-0.278
0.1265	-3.859	-0.279
0.127	-3.859	-0.274
0.1275	-3.859	-0.286
0.128	-3.859	-0.271
0.1285	-3.859	-0.259
0.129	-3.859	-0.214
0.1295	-3.859	-0.163
0.13	-3.859	-0.102
0.1305	-3.859	-0.070
0.131	-3.859	-0.030
0.1315	-3.859	0.002
0.132	-3.859	0.043
0.1325	-3.859	0.081
0.133	-3.859	0.118
0.1335	-3.859	0.173
0.134	-3.859	0.222
0.1345	-3.859	0.257
0.135	-3.859	0.266
0.1355	-3.859	0.270
0.136	-3.859	0.264
0.1365	-3.859	0.255
0.137	-3.859	0.231
0.1375	-3.859	0.183
0.138	-3.859	0.125
0.1385	-3.859	0.078
0.139	-3.859	0.028
0.1395	-3.859	-0.010
0.14	-3.859	-0.086
0.1405	-3.859	-0.144
0.141	-3.859	-0.206
0.1415	-3.859	-0.251
0.142	-3.859	-0.288
0.1425	-3.859	-0.297
0.143	-3.859	-0.288
0.1435	-3.859	-0.293
0.144	-3.859	-0.282
0.1445	-3.859	-0.288
0.145	-3.859	-0.278
0.1455	-3.859	-0.253
0.146	-3.859	-0.199
0.1465	-3.859	-0.147
0.147	-3.859	-0.099
0.1475	-3.859	-0.054
0.148	-3.859	0.003
0.1485	-3.859	0.047
0.149	-3.859	0.082
0.1495	-3.859	0.132
0.15	-3.859	0.185
0.1505	-3.859	0.230
0.151	-3.859	0.243
0.1515	-3.859	0.260
0.152	-3.859	0.247
0.1525	-3.859	0.244
0.153	-3.859	0.234
0.1535	-3.859	0.235
0.154	-3.859	0.196
0.1545	-3.859	0.142
0.155	-3.859	0.077
0.1555	-3.859	0.020
0.156	-3.859	-0.025
0.1565	-3.859	-0.069
0.157	-3.859	-0.134
0.1575	-3.859	-0.178
0.158	-3.859	-0.211
0.1585	-3.859	-0.249
0.159	-3.859	-0.280
0.1595	-3.859	-0.297
0.16	-3.859	-0.309
0.1605	-3.859	-0.309
0.161	-3.859	-0.290
0.1615	-3.859	-0.271
0.162	-3.859	-0.249
0.1625	-3.859	-0.222
0.163	-3.859	-0.178
0.1635	-3.859	-0.127
0.164	-3.859	-0.085
0.1645	-3.859	-0.024
0.165	-3.859	0.028
0.1655	-3.859	0.080
0.166	-3.859	0.140
0.1665	-3.859	0.190
0.167	-3.859	0.227
0.1675	-3.859	0.254
0.168	-3.859	0.267
0.1685	-3.859	0.256
0.169	-3.859	0.250
0.1695	-3.859	0.246
0.17	-3.859	0.231
0.1705	-3.859	0.203
0.171	-3.859	0.148
0.1715	-3.859	0.083
0.172	-3.859	0.040
0.1725	-3.859	-0.022
0.173	-3.859	-0.062
0.1735	-3.859	-0.130
0.174	-3.859	-0.166
0.1745	-3.859	-0.201
0.175	-3.859	-0.235
0.1755	-3.859	-0.285
0.176	-3.859	-0.281
0.1765	-3.859	-0.282
0.177	-3.859	-0.273
0.1775	-3.859	-0.278
0.178	-3.859	-0.267
0.1785	-3.859	-0.261
0.179	-3.859	-0.225
0.1795	-3.859	-0.178
0.18	-3.859	-0.128
0.1805	-3.859	-0.082
0.181	-3.859	-0.025
0.1815	-3.859	0.018
0.182	-3.859	0.056
0.1825	-3.859	0.096
0.183	-3.859	0.139
0.1835	-3.859	0.191
0.184	-3.859	0.246
0.1845	-3.859	0.265
0.185	-3.859	0.271
0.1855	-3.859	0.258
0.186	-3.859	0.256
0.1865	-3.859	0.259
0.187	-3.859	0.236
0.1875	-3.859	0.180
0.188	-3.859	0.130
0.1885	-3.859	0.069
0.189	-3.859	0.018
0.1895	-3.859	-0.036
0.19	-3.859	-0.098
0.1905	-3.859	-0.148
0.191	-3.859	-0.198
0.1915	-3.859	-0.243
0.192	-3.859	-0.293
0.1925	-3.859	-0.301
0.193	-3.859	-0.304
0.1935	-3.859	-0.292
0.194	-3.859	-0.280
0.1945	-3.859	-0.283
0.195	-3.859	-0.281
0.1955	-3.859	-0.252
0.196	-3.859	-0.218
0.1965	-3.859	-0.143
0.197	-3.859	-0.085
0.1975	-3.859	-0.025
0.198	-3.859	0.029
0.1985	-3.859	0.075
0.199	-3.859	0.098
0.1995	-3.859	0.143
0.2	-3.859	0.179
0.2005	-3.859	0.223
0.201	-3.859	0.240
0.2015	-3.859	0.252
0.202	-3.859	0.249
0.2025	-3.859	0.256
0.203	-3.859	0.246
0.2035	-3.859	0.224
0.204	-3.859	0.187
0.2045	-3.859	0.135
0.205	-3.859	0.078
0.2055	-3.859	0.038
0.206	-3.859	-0.024
0.2065	-3.859	-0.077
0.207	-3.859	-0.136
0.2075	-3.859	-0.171
0.208	-3.859	-0.222
0.2085	-3.859	-0.271
0.209	-3.859	-0.297
0.2095	-3.859	-0.282
0.21	-3.859	-0.289
0.2105	-3.859	-0.267
0.211	-3.859	-0.264
0.2115	-3.859	-0.250
0.212	-3.859	-0.232
0.2125	-3.859	-0.188
0.213	-3.859	-0.141
0.2135	-3.859	-0.101
0.214	-3.858	-0.074
0.2145	-3.858	-0.028
0.215	-3.858	0.023
0.2155	-3.858	0.045
0.216	-3.858	0.104
0.2165	-3.858	0.162
0.217	-3.858	0.202
0.2175	-3.858	0.231
0.218	-3.858	0.250
0.2185	-3.858	0.242
0.219	-3.858	0.237
0.2195	-3.858	0.255
0.22	-3.858	0.245
0.2205	-3.858	0.220
0.221	-3.858	0.163
0.2215	-3.858	0.102
0.222	-3.858	0.045
0.2225	-3.858	0.001
0.223	-3.858	-0.051
0.2235	-3.858	-0.116
0.224	-3.858	-0.174
0.2245	-3.858	-0.219
0.225	-3.858	-0.250
0.2255	-3.858	-0.285
0.226	-3.858	-0.290
0.2265	-3.858	-0.285
0.227	-3.858	-0.286
0.2275	-3.858	-0.276
0.228	-3.858	-0.276
0.2285	-3.858	-0.263
0.229	-3.858	-0.229
0.2295	-3.858	-0.177
0.23	-3.858	-0.131
0.2305	-3.858	-0.103
0.231	-3.858	-0.053
0.2315	-3.858	-0.000
0.232	-3.858	0.056
0.2325	-3.858	0.083
0.233	-3.858	0.134
0.2335	-3.858	0.187
0.234	-3.858	0.232
0.2345	-3.858	0.266
0.235	-3.858	0.278
0.2355	-3.858	0.263
0.236	-3.858	0.265
0.2365	-3.858	0.255
0.237	-3.858	0.237
0.2375	-3.858	0.182
0.238	-3.858	0.110
0.2385	-3.858	0.070
0.239	-3.858	0.018
0.2395	-3.858	-0.026
0.24	-3.858	-0.076
0.2405	-3.858	-0.139
0.241	-3.858	-0.188
0.2415	-3.858	-0.227
0.242	-3.858	-0.267
0.2425	-3.858	-0.277
0.243	-3.858	-0.292
0.2435	-3.858	-0.304
0.244	-3.858	-0.311
0.2445	-3.858	-0.292
0.245	-3.858	-0.270
0.2455	-3.858	-0.243
0.246	-3.858	-0.186
0.2465	-3.858	-0.143
0.247	-3.858	-0.088
0.2475	-3.858	-0.052
0.248	-3.858	0.003
0.2485	-3.858	0.040
0.249	-3.858	0.077
0.2495	-3.858	0.124
0.25	-3.858	0.170
0.2505	-3.858	0.220
0.251	-3.858	0.254
0.2515	-3.858	0.280
0.252	-3.858	0.274
0.2525	-3.858	0.274
0.253	-3.858	0.242
0.2535	-3.858	0.220
0.254	-3.858	0.176
0.2545	-3.858	0.130
0.255	-3.858	0.066
0.2555	-3.858	0.025
0.256	-3.858	-0.023
0.2565	-3.858	-0.082
0.257	-3.858	-0.128
0.2575	-3.858	-0.170
0.258	-3.858	-0.207
0.2585	-3.858	-0.257
0.259	-3.858	-0.288
0.2595	-3.858	-0.278
0.26	-3.858	-0.288
0.2605	-3.858	-0.294
0.261	-3.858	-0.291
0.2615	-3.858	-0.286
0.262	-3.858	-0.261
0.2625	-3.858	-0.206
0.263	-3.858	-0.153
0.2635	-3.858	-0.101
0.264	-3.858	-0.059
0.2645	-3.858	-0.011
0.265	-3.858	0.041
0.2655	-3.858	0.103
0.266	-3.858	0.142
0.2665	-3.858	0.184
0.267	-3.858	0.220
0.2675	-3.858	0.238
0.268	-3.858	0.259
0.2685	-3.858	0.249
0.269	-3.858	0.236
0.2695	-3.858	0.232
0.27	-3.858	0.217
0.2705	-3.858	0.186
0.271	-3.858	0.140
0.2715	-3.858	0.086
0.272	-3.858	0.037
0.2725	-3.858	-0.008
0.273	-3.858	-0.040
0.2735	-3.858	-0.094
0.274	-3.858	-0.151
0.2745	-3.858	-0.222
0.275	-3.858	-0.259
0.2755	-3.858	-0.291
0.276	-3.858	-0.285
0.2765	-3.858	-0.283
0.277	-3.858	-0.284
0.2775	-3.858	-0.283
0.278	-3.858	-0.268
0.2785	-3.858	-0.247
0.279	-3.858	-0.218
0.2795	-3.858	-0.168
0.28	-3.858	-0.116
0.2805	-3.858	-0.071
0.281	-3.858	-0.031
0.2815	-3.858	0.019
0.282	-3.858	0.065
0.2825	-3.858	0.118
0.283	-3.856	0.162
0.2835	-3.856	0.207
0.284	-3.856	0.247
0.2845	-3.856	0.262
0.285	-3.856	0.260
0.2855	-3.856	0.248
0.286	-3.856	0.239
0.2865	-3.856	0.233
0.287	-3.856	0.203
0.2875	-3.856	0.164
0.288	-3.856	0.105
0.2885	-3.856	0.054
0.289	-3.856	0.021
0.2895	-3.856	-0.031
0.29	-3.856	-0.104
0.2905	-3.856	-0.163
0.291	-3.856	-0.199
0.2915	-3.856	-0.249
0.292	-3.856	-0.270
0.2925	-3.856	-0.296
0.293	-3.856	-0.291
0.2935	-3.856	-0.292
0.294	-3.856	-0.292
0.2945	-3.856	-0.282
0.295	-3.856	-0.277
0.2955	-3.856	-0.250
0.296	-3.856	-0.199
0.2965	-3.856	-0.151
0.297	-3.856	-0.098
0.2975	-3.856	-0.037
0.298	-3.856	0.021
0.2985	-3.856	0.065
0.299	-3.856	0.097
0.2995	-3.856	0.162
0.3	-3.856	0.199
0.3005	-3.856	0.225
0.301	-3.856	0.235
0.3015	-3.856	0.242
0.302	-3.856	0.248
0.3025	-3.856	0.251
0.303	-3.856	0.260
0.3035	-3.856	0.239
0.304	-3.856	0.198
0.3045	-3.856	0.133
0.305	-3.856	0.076
0.3055	-3.856	0.029
0.306	-3.856	-0.007
0.3065	-3.856	-0.061
0.307	-3.856	-0.123
0.3075	-3.856	-0.188
0.308	-3.856	-0.221
0.3085	-3.856	-0.235
0.309	-3.856	-0.268
0.3095	-3.856	-0.258
0.31	-3.856	-0.269
0.3105	-3.856	-0.278
0.311	-3.856	-0.294
0.3115	-3.856	-0.285
0.312	-3.856	-0.274
0.3125	-3.856	-0.223
0.313	-3.856	-0.159
0.3135	-3.856	-0.103
0.314	-3.856	-0.065
0.3145	-3.856	-0.022
0.315	-3.856	0.026
0.3155	-3.856	0.061
0.316	-3.856	0.117
0.3165	-3.856	0.175
0.317	-3.856	0.243
0.3175	-3.856	0.257
0.318	-3.856	0.269
0.3185	-3.856	0.257
0.319	-3.856	0.255
0.3195	-3.856	0.244
0.32	-3.856	0.248
0.3205	-3.856	0.214
0.321	-3.856	0.157
0.3215	-3.856	0.092
0.322	-3.856	0.046
0.3225	-3.856	-0.008
0.323	-3.856	-0.077
0.3235	-3.856	-0.144
0.324	-3.856	-0.178
0.3245	-3.856	-0.223
0.325	-3.856	-0.276
0.3255	-3.856	-0.299
0.326	-3.856	-0.293
0.3265	-3.856	-0.278
0.327	-3.856	-0.276
0.3275	-3.856	-0.276
0.328	-3.856	-0.281
0.3285	-3.856	-0.260
0.329	-3.856	-0.228
0.3295	-3.856	-0.176
0.33	-3.856	-0.124
0.3305	-3.856	-0.079
0.331	-3.856	-0.032
0.3315	-3.856	0.020
0.332	-3.856	0.056
0.3325	-3.856	0.104
0.333	-3.856	0.172
0.3335	-3.856	0.222
0.334	-3.856	0.261
0.3345	-3.856	0.272
0.335	-3.856	0.271
0.3355	-3.856	0.260
0.336	-3.856	0.266
0.3365	-3.856	0.245
0.337	-3.856	0.216
0.3375	-3.856	0.171
0.338	-3.856	0.118
0.3385	-3.856	0.073
0.339	-3.855	0.026
0.3395	-3.855	-0.032
0.34	-3.855	-0.106
0.3405	-3.855	-0.157
0.341	-3.855	-0.197
0.3415	-3.855	-0.231
0.342	-3.855	-0.279
0.3425	-3.855	-0.296
0.343	-3.855	-0.292
0.3435	-3.855	-0.290
0.344	-3.855	-0.291
0.3445	-3.855	-0.281
0.345	-3.855	-0.258
0.3455	-3.855	-0.235
0.346	-3.855	-0.188
0.3465	-3.855	-0.142
0.347	-3.855	-0.091
0.3475	-3.855	-0.050
0.348	-3.855	0.009
0.3485	-3.855	0.046
0.349	-3.855	0.083
0.3495	-3.855	0.145
0.35	-3.855	0.202
0.3505	-3.855	0.242
0.351	-3.855	0.266
0.3515	-3.855	0.280
0.352	-3.855	0.257
0.3525	-3.855	0.259
0.353	-3.855	0.237
0.3535	-3.855	0.229
0.354	-3.855	0.177
0.3545	-3.855	0.112
0.355	-3.855	0.074
0.3555	-3.855	0.037
0.356	-3.855	-0.028
0.3565	-3.855	-0.085
0.357	-3.855	-0.158
0.3575	-3.855	-0.206
0.358	-3.855	-0.246
0.3585	-3.855	-0.289
0.359	-3.855	-0.315
0.3595	-3.855	-0.306
0.36	-3.855	-0.300
0.3605	-3.855	-0.286
0.361	-3.855	-0.281
0.3615	-3.855	-0.279
0.362	-3.855	-0.244
0.3625	-3.855	-0.195
0.363	-3.855	-0.137
0.3635	-3.855	-0.083
0.364	-3.855	-0.042
0.3645	-3.855	-0.009
0.365	-3.855	0.030
0.3655	-3.855	0.070
0.366	-3.855	0.123
0.3665	-3.855	0.176
0.367	-3.855	0.219
0.3675	-3.855	0.275
0.368	-3.855	0.303
0.3685	-3.855	0.290
0.369	-3.855	0.253
0.3695	-3.855	0.246
0.37	-3.855	0.223
0.3705	-3.855	0.191
0.371	-3.855	0.133
0.3715	-3.855	0.082
0.372	-3.855	0.033
0.3725	-3.855	-0.004
0.373	-3.855	-0.060
0.3735	-3.855	-0.115
0.374	-3.855	-0.160
0.3745	-3.855	-0.201
0.375	-3.855	-0.245
0.3755	-3.855	-0.300
0.376	-3.855	-0.293
0.3765	-3.855	-0.283
0.377	-3.855	-0.285
0.3775	-3.855	-0.290
0.378	-3.855	-0.277
0.3785	-3.855	-0.260
0.379	-3.855	-0.224
0.3795	-3.855	-0.172
0.38	-3.855	-0.126
0.3805	-3.855	-0.075
0.381	-3.855	-0.028
0.3815	-3.855	0.022
0.382	-3.855	0.061
0.3825	-3.855	0.098
0.383	-3.855	0.158
0.3835	-3.855	0.205
0.384	-3.855	0.226
0.3845	-3.855	0.261
0.385	-3.855	0.257
0.3855	-3.855	0.248
0.386	-3.855	0.241
0.3865	-3.853	0.243
0.387	-3.853	0.213
0.3875	-3.853	0.159
0.388	-3.853	0.111
0.3885	-3.853	0.050
0.389	-3.853	0.006
0.3895	-3.853	-0.037
0.39	-3.853	-0.087
0.3905	-3.853	-0.149
0.391	-3.853	-0.192
0.3915	-3.853	-0.235
0.392	-3.853	-0.274
0.3925	-3.853	-0.300
0.393	-3.853	-0.290
0.3935	-3.853	-0.288
0.394	-3.853	-0.295
0.3945	-3.853	-0.285
0.395	-3.853	-0.275
0.3955	-3.853	-0.243
0.396	-3.853	-0.198
0.3965	-3.853	-0.139
0.397	-3.853	-0.081
0.3975	-3.853	-0.033
0.398	-3.853	0.005
0.3985	-3.853	0.059
0.399	-3.853	0.100
0.3995	-3.853	0.151
0.4	-3.853	0.189
0.4005	-3.853	0.241
0.401	-3.853	0.257
0.4015	-3.853	0.263
0.402	-3.853	0.253
0.4025	-3.853	0.250
0.403	-3.853	0.245
0.4035	-3.853	0.230
0.404	-3.853	0.211
0.4045	-3.853	0.146
0.405	-3.853	0.075
0.4055	-3.853	0.028
0.406	-3.853	-0.018
0.4065	-3.853	-0.095
0.407	-3.853	-0.147
0.4075	-3.853	-0.193
0.408	-3.853	-0.238
0.4085	-3.853	-0.276
0.409	-3.853	-0.292
0.4095	-3.853	-0.296
0.41	-3.853	-0.295
0.4105	-3.853	-0.304
0.411	-3.853	-0.303
0.4115	-3.853	-0.287
0.412	-3.853	-0.262
0.4125	-3.853	-0.205
0.413	-3.853	-0.153
0.4135	-3.853	-0.099
0.414	-3.853	-0.059
0.4145	-3.853	-0.001
0.415	-3.853	0.055
0.4155	-3.853	0.095
0.416	-3.853	0.135
0.4165	-3.853	0.177
0.417	-3.853	0.223
0.4175	-3.853	0.263
0.418	-3.853	0.284
0.4185	-3.853	0.258
0.419	-3.853	0.262
0.4195	-3.853	0.255
0.42	-3.853	0.226
0.4205	-3.853	0.192
0.421	-3.853	0.141
0.4215	-3.853	0.097
0.422	-3.853	0.039
0.4225	-3.853	-0.005
0.423	-3.853	-0.052
0.4235	-3.853	-0.115
0.424	-3.853	-0.164
0.4245	-3.853	-0.205
0.425	-3.853	-0.252
0.4255	-3.853	-0.292
0.426	-3.853	-0.288
0.4265	-3.853	-0.291
0.427	-3.853	-0.292
0.4275	-3.852	-0.290
0.428	-3.852	-0.286
0.4285	-3.852	-0.264
0.429	-3.852	-0.223
0.4295	-3.852	-0.174
0.43	-3.852	-0.115
0.4305	-3.852	-0.070
0.431	-3.852	-0.017
0.4315	-3.852	0.021
0.432	-3.852	0.065
0.4325	-3.852	0.105
0.433	-3.852	0.144
0.4335	-3.852	0.185
0.434	-3.852	0.222
0.4345	-3.852	0.241
0.435	-3.852	0.252
0.4355	-3.852	0.258
0.436	-3.852	0.263
0.4365	-3.852	0.258
0.437	-3.852	0.220
0.4375	-3.852	0.164
0.438	-3.852	0.108
0.4385	-3.852	0.066
0.439	-3.852	0.037
0.4395	-3.852	-0.022
0.44	-3.852	-0.087
0.4405	-3.852	-0.125
0.441	-3.852	-0.178
0.4415	-3.852	-0.230
0.442	-3.852	-0.289
0.4425	-3.852	-0.296
0.443	-3.852	-0.298
0.4435	-3.852	-0.296
0.444	-3.852	-0.296
0.4445	-3.852	-0.290
0.445	-3.852	-0.275
0.4455	-3.852	-0.244
0.446	-3.852	-0.200
0.4465	-3.852	-0.152
0.447	-3.852	-0.102
0.4475	-3.852	-0.049
0.448	-3.852	0.002
0.4485	-3.852	0.050
0.449	-3.852	0.097
0.4495	-3.852	0.138
0.45	-3.852	0.175
0.4505	-3.852	0.220
0.451	-3.852	0.261
0.4515	-3.852	0.254
0.452	-3.852	0.248
0.4525	-3.852	0.243
0.453	-3.852	0.235
0.4535	-3.852	0.224
0.454	-3.852	0.183
0.4545	-3.852	0.120
0.455	-3.852	0.065
0.4555	-3.852	0.024
0.456	-3.852	-0.027
0.4565	-3.852	-0.083
0.457	-3.852	-0.157
0.4575	-3.852	-0.199
0.458	-3.852	-0.243
0.4585	-3.852	-0.271
0.459	-3.852	-0.276
0.4595	-3.852	-0.250
0.46	-3.852	-0.261
0.4605	-3.852	-0.265
0.461	-3.852	-0.275
0.4615	-3.852	-0.267
0.462	-3.852	-0.256
0.4625	-3.852	-0.213
0.463	-3.852	-0.153
0.4635	-3.852	-0.101
0.464	-3.852	-0.058
0.4645	-3.852	-0.013
0.465	-3.852	0.042
0.4655	-3.850	0.076
0.466	-3.850	0.121
0.4665	-3.850	0.164
0.467	-3.850	0.212
0.4675	-3.850	0.239
0.468	-3.850	0.266
0.4685	-3.850	0.262
0.469	-3.850	0.260
0.4695	-3.850	0.266
0.47	-3.850	0.234
0.4705	-3.850	0.187
0.471	-3.850	0.133
0.4715	-3.850	0.096
0.472	-3.850	0.050
0.4725	-3.850	0.003
0.473	-3.850	-0.042
0.4735	-3.850	-0.102
0.474	-3.850	-0.159
0.4745	-3.850	-0.212
0.475	-3.850	-0.257
0.4755	-3.850	-0.302
0.476	-3.850	-0.295
0.4765	-3.850	-0.299
0.477	-3.850	-0.299
0.4775	-3.850	-0.291
0.478	-3.850	-0.291
0.4785	-3.850	-0.266
0.479	-3.850	-0.232
0.4795	-3.850	-0.176
0.48	-3.850	-0.125
0.4805	-3.850	-0.074
0.481	-3.850	-0.024
0.4815	-3.850	0.024
0.482	-3.850	0.080
0.4825	-3.850	0.119
0.483	-3.850	0.160
0.4835	-3.850	0.210
0.484	-3.850	0.245
0.4845	-3.850	0.266
0.485	-3.850	0.245
0.4855	-3.850	0.244
0.486	-3.850	0.236
0.4865	-3.850	0.226
0.487	-3.850	0.198
0.4875	-3.850	0.147
0.488	-3.850	0.095
0.4885	-3.850	0.056
0.489	-3.850	0.023
0.4895	-3.850	-0.037
0.49	-3.850	-0.120
0.4905	-3.850	-0.179
0.491	-3.850	-0.196
0.4915	-3.850	-0.210
0.492	-3.850	-0.232
0.4925	-3.850	-0.256
0.493	-3.850	-0.277
0.4935	-3.850	-0.302
0.494	-3.850	-0.302
0.4945	-3.850	-0.304
0.495	-3.850	-0.294
0.4955	-3.850	-0.257
0.496	-3.850	-0.180
0.4965	-3.850	-0.112
0.497	-3.850	-0.061
0.4975	-3.850	-0.033
0.498	-3.850	0.024
0.4985	-3.850	0.072
0.499	-3.850	0.103
0.4995	-3.850	0.162
0.5	-3.850	0.205
0.5005	-3.850	0.238
0.501	-3.850	0.254
0.5015	-3.850	0.278
0.502	-3.850	0.260
0.5025	-3.850	0.246
0.503	-3.850	0.238
0.5035	-3.850	0.233
0.504	-3.850	0.195
0.5045	-3.848	0.130
0.505	-3.848	0.075
0.5055	-3.848	0.033
0.506	-3.848	-0.023
0.5065	-3.848	-0.077
0.507	-3.848	-0.132
0.5075	-3.848	-0.191
0.508	-3.848	-0.231
0.5085	-3.848	-0.268
0.509	-3.848	-0.296
0.5095	-3.848	-0.297
0.51	-3.848	-0.281
0.5105	-3.848	-0.284
0.511	-3.848	-0.283
0.5115	-3.848	-0.270
0.512	-3.848	-0.252
0.5125	-3.848	-0.210
0.513	-3.848	-0.158
0.5135	-3.848	-0.097
0.514	-3.848	-0.056
0.5145	-3.848	-0.012
0.515	-3.848	0.041
0.5155	-3.848	0.078
0.516	-3.848	0.123
0.5165	-3.848	0.175
0.517	-3.848	0.221
0.5175	-3.848	0.236
0.518	-3.848	0.259
0.5185	-3.848	0.245
0.519	-3.848	0.254
0.5195	-3.848	0.259
0.52	-3.848	0.235
0.5205	-3.848	0.212
0.521	-3.848	0.155
0.5215	-3.848	0.096
0.522	-3.848	0.040
0.5225	-3.848	-0.003
0.523	-3.848	-0.062
0.5235	-3.848	-0.126
0.524	-3.848	-0.172
0.5245	-3.848	-0.217
0.525	-3.848	-0.257
0.5255	-3.848	-0.283
0.526	-3.848	-0.295
0.5265	-3.848	-0.296
0.527	-3.848	-0.297
0.5275	-3.848	-0.289
0.528	-3.848	-0.295
0.5285	-3.848	-0.266
0.529	-3.848	-0.225
0.5295	-3.848	-0.164
0.53	-3.848	-0.109
0.5305	-3.848	-0.069
0.531	-3.848	-0.015
0.5315	-3.848	0.039
0.532	-3.848	0.079
0.5325	-3.848	0.112
0.533	-3.848	0.163
0.5335	-3.848	0.203
0.534	-3.848	0.239
0.5345	-3.848	0.249
0.535	-3.848	0.255
0.5355	-3.848	0.245
0.536	-3.848	0.251
0.5365	-3.848	0.236
0.537	-3.848	0.208
0.5375	-3.848	0.165
0.538	-3.848	0.112
0.5385	-3.848	0.039
0.539	-3.848	-0.011
0.5395	-3.848	-0.078
0.54	-3.848	-0.121
0.5405	-3.848	-0.143
0.541	-3.848	-0.165
0.5415	-3.848	-0.203
0.542	-3.848	-0.246
0.5425	-3.848	-0.265
0.543	-3.848	-0.258
0.5435	-3.848	-0.274
0.544	-3.848	-0.291
0.5445	-3.848	-0.301
0.545	-3.848	-0.301
0.5455	-3.848	-0.265
0.546	-3.848	-0.213
0.5465	-3.848	-0.148
0.547	-3.847	-0.099
0.5475	-3.847	-0.049
0.548	-3.847	0.001
0.5485	-3.847	0.050
0.549	-3.847	0.093
0.5495	-3.847	0.135
0.55	-3.847	0.188
0.5505	-3.847	0.237
0.551	-3.847	0.266
0.5515	-3.847	0.266
0.552	-3.847	0.257
0.5525	-3.847	0.247
0.553	-3.847	0.237
0.5535	-3.847	0.219
0.554	-3.847	0.170
0.5545	-3.847	0.109
0.555	-3.847	0.052
0.5555	-3.847	0.002
0.556	-3.847	-0.048
0.5565	-3.847	-0.103
0.557	-3.847	-0.146
0.5575	-3.847	-0.197
0.558	-3.847	-0.255
0.5585	-3.847	-0.277
0.559	-3.847	-0.295
0.5595	-3.847	-0.284
0.56	-3.847	-0.288
0.5605	-3.847	-0.279
0.561	-3.847	-0.268
0.5615	-3.847	-0.259
0.562	-3.847	-0.239
0.5625	-3.847	-0.193
0.563	-3.847	-0.129
0.5635	-3.847	-0.089
0.564	-3.847	-0.034
0.5645	-3.847	0.034
0.565	-3.847	0.072
0.5655	-3.847	0.113
0.566	-3.847	0.161
0.5665	-3.847	0.179
0.567	-3.847	0.228
0.5675	-3.847	0.250
0.568	-3.847	0.253
0.5685	-3.847	0.251
0.569	-3.847	0.248
0.5695	-3.847	0.251
0.57	-3.847	0.238
0.5705	-3.847	0.193
0.571	-3.847	0.136
0.5715	-3.847	0.080
0.572	-3.847	0.035
0.5725	-3.847	-0.015
0.573	-3.847	-0.067
0.5735	-3.847	-0.129
0.574	-3.847	-0.178
0.5745	-3.847	-0.221
0.575	-3.847	-0.250
0.5755	-3.847	-0.289
0.576	-3.847	-0.276
0.5765	-3.847	-0.276
0.577	-3.847	-0.286
0.5775	-3.847	-0.303
0.578	-3.847	-0.288
0.5785	-3.847	-0.265
0.579	-3.847	-0.218
0.5795	-3.847	-0.160
0.58	-3.847	-0.093
0.5805	-3.847	-0.060
0.581	-3.847	-0.005
0.5815	-3.847	0.048
0.582	-3.847	0.065
0.5825	-3.847	0.107
0.583	-3.847	0.147
0.5835	-3.847	0.197
0.584	-3.847	0.233
0.5845	-3.847	0.253
0.585	-3.847	0.263
0.5855	-3.847	0.265
0.586	-3.847	0.250
0.5865	-3.847	0.240
0.587	-3.847	0.211
0.5875	-3.847	0.159
0.588	-3.847	0.104
0.5885	-3.847	0.056
0.589	-3.847	0.002
0.5895	-3.847	-0.036
0.59	-3.847	-0.103
0.5905	-3.847	-0.149
0.591	-3.847	-0.192
0.5915	-3.847	-0.240
0.592	-3.847	-0.273
0.5925	-3.847	-0.297
0.593	-3.847	-0.288
0.5935	-3.847	-0.290
0.594	-3.847	-0.285
0.5945	-3.847	-0.313
0.595	-3.847	-0.284
0.5955	-3.847	-0.249
0.596	-3.847	-0.198
0.5965	-3.847	-0.130
0.597	-3.847	-0.083
0.5975	-3.847	-0.050
0.598	-3.847	0.009
0.5985	-3.847	0.061
0.599	-3.847	0.102
0.5995	-3.847	0.150
0.6	-3.847	0.186
0.6005	-3.847	0.232
0.601	-3.845	0.245
0.6015	-3.845	0.255
0.602	-3.845	0.254
0.6025	-3.845	0.248
0.603	-3.845	0.236
0.6035	-3.845	0.212
0.604	-3.845	0.179
0.6045	-3.845	0.129
0.605	-3.845	0.071
0.6055	-3.845	0.028
0.606	-3.845	-0.026
0.6065	-3.845	-0.091
0.607	-3.845	-0.147
0.6075	-3.845	-0.197
0.608	-3.845	-0.241
0.6085	-3.845	-0.286
0.609	-3.845	-0.303
0.6095	-3.845	-0.302
0.61	-3.845	-0.303
0.6105	-3.845	-0.291
0.611	-3.845	-0.293
0.6115	-3.845	-0.283
0.612	-3.845	-0.246
0.6125	-3.845	-0.201
0.613	-3.845	-0.145
0.6135	-3.845	-0.096
0.614	-3.845	-0.046
0.6145	-3.845	0.027
0.615	-3.845	0.066
0.6155	-3.845	0.099
0.616	-3.845	0.144
0.6165	-3.845	0.203
0.617	-3.845	0.231
0.6175	-3.845	0.257
0.618	-3.845	0.264
0.6185	-3.845	0.251
0.619	-3.845	0.254
0.6195	-3.845	0.246
0.62	-3.845	0.220
0.6205	-3.845	0.188
0.621	-3.845	0.133
0.6215	-3.845	0.081
0.622	-3.845	0.046
0.6225	-3.845	-0.008
0.623	-3.845	-0.056
0.6235	-3.845	-0.130
0.624	-3.845	-0.178
0.6245	-3.845	-0.224
0.625	-3.845	-0.260
0.6255	-3.845	-0.295
0.626	-3.845	-0.296
0.6265	-3.845	-0.302
0.627	-3.845	-0.297
0.6275	-3.845	-0.286
0.628	-3.845	-0.286
0.6285	-3.845	-0.256
0.629	-3.845	-0.220
0.6295	-3.845	-0.161
0.63	-3.845	-0.097
0.6305	-3.845	-0.060
0.631	-3.845	-0.021
0.6315	-3.845	0.030
0.632	-3.845	0.057
0.6325	-3.845	0.108
0.633	-3.845	0.148
0.6335	-3.845	0.212
0.634	-3.845	0.244
0.6345	-3.845	0.279
0.635	-3.845	0.275
0.6355	-3.845	0.266
0.636	-3.845	0.258
0.6365	-3.845	0.234
0.637	-3.845	0.230
0.6375	-3.845	0.181
0.638	-3.845	0.122
0.6385	-3.845	0.080
0.639	-3.845	0.029
0.6395	-3.845	-0.047
0.64	-3.845	-0.122
0.6405	-3.845	-0.178
0.641	-3.845	-0.225
0.6415	-3.845	-0.257
0.642	-3.845	-0.293
0.6425	-3.845	-0.298
0.643	-3.845	-0.307
0.6435	-3.845	-0.300
0.644	-3.845	-0.299
0.6445	-3.845	-0.283
0.645	-3.845	-0.278
0.6455	-3.845	-0.241
0.646	-3.845	-0.183
0.6465	-3.845	-0.140
0.647	-3.845	-0.091
0.6475	-3.845	-0.037
0.648	-3.845	0.015
0.6485	-3.845	0.054
0.649	-3.845	0.094
0.6495	-3.845	0.147
0.65	-3.845	0.208
0.6505	-3.845	0.228
0.651	-3.845	0.248
0.6515	-3.845	0.249
0.652	-3.845	0.249
0.6525	-3.845	0.249
0.653	-3.845	0.239
0.6535	-3.845	0.215
0.654	-3.845	0.180
0.6545	-3.845	0.120
0.655	-3.845	0.068
0.6555	-3.845	0.042
0.656	-3.845	0.016
0.6565	-3.845	-0.054
0.657	-3.845	-0.127
0.6575	-3.845	-0.191
0.658	-3.845	-0.239
0.6585	-3.845	-0.276
0.659	-3.845	-0.298
0.6595	-3.845	-0.288
0.66	-3.845	-0.292
0.6605	-3.845	-0.304
0.661	-3.845	-0.305
0.6615	-3.845	-0.283
0.662	-3.845	-0.251
0.6625	-3.845	-0.213
0.663	-3.845	-0.156
0.6635	-3.845	-0.092
0.664	-3.845	-0.052
0.6645	-3.845	-0.006
0.665	-3.845	0.048
0.6655	-3.845	0.067
0.666	-3.845	0.123
0.6665	-3.845	0.176
0.667	-3.845	0.225
0.6675	-3.845	0.243
0.668	-3.845	0.264
0.6685	-3.845	0.257
0.669	-3.845	0.249
0.6695	-3.845	0.246
0.67	-3.845	0.237
0.6705	-3.845	0.206
0.671	-3.845	0.138
0.6715	-3.845	0.083
0.672	-3.845	0.038
0.6725	-3.845	-0.005
0.673	-3.845	-0.069
0.6735	-3.845	-0.135
0.674	-3.845	-0.189
0.6745	-3.845	-0.234
0.675	-3.845	-0.266
0.6755	-3.845	-0.283
0.676	-3.845	-0.291
0.6765	-3.845	-0.298
0.677	-3.845	-0.300
0.6775	-3.845	-0.283
0.678	-3.845	-0.273
0.6785	-3.845	-0.256
0.679	-3.845	-0.201
0.6795	-3.845	-0.147
0.68	-3.845	-0.096
0.6805	-3.845	-0.055
0.681	-3.845	-0.002
0.6815	-3.845	0.048
0.682	-3.845	0.094
0.6825	-3.845	0.131
0.683	-3.845	0.177
0.6835	-3.845	0.204
0.684	-3.845	0.234
0.6845	-3.845	0.244
0.685	-3.845	0.249
0.6855	-3.845	0.243
0.686	-3.845	0.238
0.6865	-3.845	0.215
0.687	-3.845	0.176
0.6875	-3.845	0.138
0.688	-3.845	0.096
0.6885	-3.845	0.042
0.689	-3.845	0.000
0.6895	-3.845	-0.023
0.69	-3.845	-0.093
0.6905	-3.845	-0.150
0.691	-3.845	-0.206
0.6915	-3.845	-0.261
0.692	-3.845	-0.296
0.6925	-3.845	-0.301
0.693	-3.845	-0.300
0.6935	-3.845	-0.298
0.694	-3.845	-0.295
0.6945	-3.845	-0.288
0.695	-3.845	-0.277
0.6955	-3.844	-0.248
0.696	-3.844	-0.183
0.6965	-3.844	-0.130
0.697	-3.844	-0.077
0.6975	-3.844	-0.028
0.698	-3.844	0.030
0.6985	-3.844	0.068
0.699	-3.844	0.102
0.6995	-3.844	0.152
0.7	-3.844	0.189
0.7005	-3.844	0.229
0.701	-3.844	0.250
0.7015	-3.844	0.254
0.702	-3.844	0.232
0.7025	-3.844	0.227
0.703	-3.844	0.218
0.7035	-3.844	0.209
0.704	-3.844	0.161
0.7045	-3.844	0.135
0.705	-3.844	0.083
0.7055	-3.844	0.037
0.706	-3.844	-0.009
0.7065	-3.844	-0.071
0.707	-3.844	-0.139
0.7075	-3.844	-0.197
0.708	-3.844	-0.234
0.7085	-3.844	-0.278
0.709	-3.844	-0.294
0.7095	-3.844	-0.300
0.71	-3.844	-0.293
0.7105	-3.844	-0.303
0.711	-3.844	-0.297
0.7115	-3.844	-0.292
0.712	-3.844	-0.247
0.7125	-3.844	-0.197
0.713	-3.844	-0.132
0.7135	-3.844	-0.088
0.714	-3.844	-0.039
0.7145	-3.844	0.009
0.715	-3.844	0.050
0.7155	-3.844	0.091
0.716	-3.844	0.129
0.7165	-3.844	0.180
0.717	-3.844	0.220
0.7175	-3.844	0.248
0.718	-3.844	0.261
0.7185	-3.844	0.250
0.719	-3.844	0.247
0.7195	-3.844	0.245
0.72	-3.844	0.227
0.7205	-3.844	0.191
0.721	-3.844	0.128
0.7215	-3.844	0.075
0.722	-3.844	0.025
0.7225	-3.844	-0.016
0.723	-3.844	-0.067
0.7235	-3.844	-0.131
0.724	-3.844	-0.177
0.7245	-3.844	-0.235
0.725	-3.844	-0.277
0.7255	-3.844	-0.312
0.726	-3.844	-0.301
0.7265	-3.844	-0.309
0.727	-3.844	-0.309
0.7275	-3.844	-0.300
0.728	-3.844	-0.291
0.7285	-3.844	-0.266
0.729	-3.844	-0.219
0.7295	-3.844	-0.151
0.73	-3.844	-0.090
0.7305	-3.844	-0.027
0.731	-3.844	0.019
0.7315	-3.844	0.067
0.732	-3.844	0.092
0.7325	-3.844	0.123
0.733	-3.844	0.172
0.7335	-3.844	0.200
0.734	-3.844	0.221
0.7345	-3.844	0.254
0.735	-3.844	0.249
0.7355	-3.844	0.248
0.736	-3.844	0.252
0.7365	-3.844	0.234
0.737	-3.844	0.211
0.7375	-3.844	0.143
0.738	-3.844	0.097
0.7385	-3.844	0.047
0.739	-3.844	0.003
0.7395	-3.844	-0.049
0.74	-3.844	-0.112
0.7405	-3.844	-0.174
0.741	-3.844	-0.215
0.7415	-3.844	-0.258
0.742	-3.844	-0.301
0.7425	-3.844	-0.305
0.743	-3.844	-0.297
0.7435	-3.844	-0.302
0.744	-3.844	-0.305
0.7445	-3.844	-0.298
0.745	-3.844	-0.269
0.7455	-3.844	-0.228
0.746	-3.844	-0.198
0.7465	-3.844	-0.137
0.747	-3.844	-0.079
0.7475	-3.844	-0.009
0.748	-3.844	0.037
0.7485	-3.844	0.100
0.749	-3.844	0.121
0.7495	-3.844	0.163
0.75	-3.844	0.203
0.7505	-3.844	0.237
0.751	-3.844	0.258
0.7515	-3.844	0.264
0.752	-3.844	0.262
0.7525	-3.844	0.247
0.753	-3.844	0.237
0.7535	-3.844	0.213
0.754	-3.844	0.183
0.7545	-3.844	0.126
0.755	-3.844	0.057
0.7555	-3.844	0.010
0.756	-3.844	-0.036
0.7565	-3.844	-0.099
0.757	-3.844	-0.160
0.7575	-3.844	-0.210
0.758	-3.844	-0.249
0.7585	-3.844	-0.274
0.759	-3.844	-0.269
0.7595	-3.844	-0.244
0.76	-3.844	-0.245
0.7605	-3.844	-0.245
0.761	-3.844	-0.233
0.7615	-3.844	-0.241
0.762	-3.844	-0.236
0.7625	-3.844	-0.195
0.763	-3.844	-0.159
0.7635	-3.844	-0.128
0.764	-3.844	-0.080
0.7645	-3.844	-0.027
0.765	-3.844	0.032
0.7655	-3.844	0.052
0.766	-3.844	0.116
0.7665	-3.844	0.156
0.767	-3.844	0.207
0.7675	-3.844	0.230
0.768	-3.844	0.241
0.7685	-3.844	0.240
0.769	-3.844	0.241
0.7695	-3.844	0.235
0.77	-3.844	0.220
0.7705	-3.844	0.197
0.771	-3.844	0.156
0.7715	-3.844	0.100
0.772	-3.844	0.058
0.7725	-3.844	0.001
0.773	-3.844	-0.057
0.7735	-3.844	-0.130
0.774	-3.844	-0.186
0.7745	-3.844	-0.214
0.775	-3.844	-0.269
0.7755	-3.844	-0.292
0.776	-3.844	-0.286
0.7765	-3.844	-0.262
0.777	-3.844	-0.279
0.7775	-3.844	-0.287
0.778	-3.844	-0.287
0.7785	-3.844	-0.276
0.779	-3.844	-0.231
0.7795	-3.844	-0.172
0.78	-3.844	-0.120
0.7805	-3.844	-0.078
0.781	-3.844	-0.033
0.7815	-3.844	0.015
0.782	-3.844	0.067
0.7825	-3.844	0.119
0.783	-3.844	0.180
0.7835	-3.844	0.230
0.784	-3.844	0.260
0.7845	-3.844	0.268
0.785	-3.844	0.272
0.7855	-3.844	0.249
0.786	-3.844	0.256
0.7865	-3.844	0.238
0.787	-3.844	0.215
0.7875	-3.844	0.161
0.788	-3.844	0.088
0.7885	-3.844	0.043
0.789	-3.844	-0.009
0.7895	-3.844	-0.057
0.79	-3.844	-0.110
0.7905	-3.844	-0.158
0.791	-3.844	-0.215
0.7915	-3.844	-0.247
0.792	-3.844	-0.293
0.7925	-3.844	-0.305
0.793	-3.844	-0.290
0.7935	-3.844	-0.294
0.794	-3.844	-0.287
0.7945	-3.844	-0.294
0.795	-3.844	-0.284
0.7955	-3.844	-0.243
0.796	-3.844	-0.199
0.7965	-3.844	-0.147
0.797	-3.844	-0.096
0.7975	-3.844	-0.042
0.798	-3.844	0.004
0.7985	-3.844	0.055
0.799	-3.844	0.107
0.7995	-3.844	0.165
0.8	-3.844	0.219
0.8005	-3.844	0.249
0.801	-3.844	0.273
0.8015	-3.844	0.268
0.802	-3.844	0.257
0.8025	-3.844	0.245
0.803	-3.844	0.233
0.8035	-3.844	0.204
0.804	-3.844	0.166
0.8045	-3.844	0.114
0.805	-3.844	0.044
0.8055	-3.844	0.008
0.806	-3.844	-0.034
0.8065	-3.844	-0.094
0.807	-3.844	-0.152
0.8075	-3.844	-0.198
0.808	-3.844	-0.250
0.8085	-3.844	-0.297
0.809	-3.844	-0.315
0.8095	-3.844	-0.318
0.81	-3.844	-0.313
0.8105	-3.844	-0.308
0.811	-3.844	-0.288
0.8115	-3.844	-0.285
0.812	-3.844	-0.245
0.8125	-3.844	-0.180
0.813	-3.844	-0.108
0.8135	-3.844	-0.065
0.814	-3.844	-0.032
0.8145	-3.844	0.011
0.815	-3.844	0.062
0.8155	-3.844	0.075
0.816	-3.844	0.119
0.8165	-3.844	0.171
0.817	-3.844	0.221
0.8175	-3.844	0.254
0.818	-3.844	0.267
0.8185	-3.844	0.250
0.819	-3.844	0.235
0.8195	-3.844	0.230
0.82	-3.844	0.234
0.8205	-3.844	0.208
0.821	-3.844	0.165
0.8215	-3.844	0.117
0.822	-3.844	0.059
0.8225	-3.844	0.004
0.823	-3.844	-0.055
0.8235	-3.844	-0.129
0.824	-3.842	-0.183
0.8245	-3.842	-0.234
0.825	-3.842	-0.268
0.8255	-3.842	-0.302
0.826	-3.842	-0.297
0.8265	-3.842	-0.297
0.827	-3.842	-0.279
0.8275	-3.842	-0.287
0.828	-3.842	-0.279
0.8285	-3.842	-0.261
0.829	-3.842	-0.219
0.8295	-3.842	-0.160
0.83	-3.842	-0.104
0.8305	-3.842	-0.065
0.831	-3.842	-0.017
0.8315	-3.842	0.037
0.832	-3.842	0.084
0.8325	-3.842	0.124
0.833	-3.842	0.174
0.8335	-3.842	0.232
0.834	-3.842	0.282
0.8345	-3.842	0.284
0.835	-3.842	0.273
0.8355	-3.842	0.264
0.836	-3.842	0.246
0.8365	-3.842	0.213
0.837	-3.842	0.188
0.8375	-3.842	0.137
0.838	-3.842	0.086
0.8385	-3.842	0.035
0.839	-3.842	-0.009
0.8395	-3.842	-0.056
0.84	-3.842	-0.109
0.8405	-3.842	-0.148
0.841	-3.842	-0.214
0.8415	-3.842	-0.262
0.842	-3.842	-0.314
0.8425	-3.842	-0.318
0.843	-3.842	-0.312
0.8435	-3.842	-0.300
0.844	-3.842	-0.291
0.8445	-3.842	-0.277
0.845	-3.842	-0.248
0.8455	-3.842	-0.208
0.846	-3.842	-0.162
0.8465	-3.842	-0.112
0.847	-3.842	-0.092
0.8475	-3.842	-0.040
0.848	-3.842	0.016
0.8485	-3.842	0.058
0.849	-3.842	0.109
0.8495	-3.842	0.185
0.85	-3.842	0.214
0.8505	-3.842	0.253
0.851	-3.842	0.266
0.8515	-3.842	0.262
0.852	-3.842	0.258
0.8525	-3.842	0.249
0.853	-3.842	0.234
0.8535	-3.842	0.212
0.854	-3.842	0.170
0.8545	-3.842	0.114
0.855	-3.842	0.052
0.8555	-3.842	0.000
0.856	-3.842	-0.040
0.8565	-3.842	-0.097
0.857	-3.842	-0.146
0.8575	-3.842	-0.192
0.858	-3.842	-0.227
0.8585	-3.842	-0.276
0.859	-3.842	-0.294
0.8595	-3.842	-0.278
0.86	-3.842	-0.268
0.8605	-3.842	-0.275
0.861	-3.842	-0.282
0.8615	-3.842	-0.276
0.862	-3.842	-0.248
0.8625	-3.842	-0.200
0.863	-3.842	-0.160
0.8635	-3.842	-0.114
0.864	-3.842	-0.070
0.8645	-3.842	-0.015
0.865	-3.842	0.047
0.8655	-3.842	0.089
0.866	-3.842	0.146
0.8665	-3.842	0.200
0.867	-3.842	0.237
0.8675	-3.842	0.254
0.868	-3.842	0.266
0.8685	-3.842	0.269
0.869	-3.842	0.250
0.8695	-3.842	0.249
0.87	-3.842	0.236
0.8705	-3.842	0.194
0.871	-3.842	0.130
0.8715	-3.842	0.084
0.872	-3.842	0.035
0.8725	-3.842	-0.019
0.873	-3.842	-0.073
0.8735	-3.842	-0.145
0.874	-3.842	-0.185
0.8745	-3.842	-0.232
0.875	-3.842	-0.271
0.8755	-3.842	-0.297
0.876	-3.842	-0.286
0.8765	-3.842	-0.282
0.877	-3.842	-0.291
0.8775	-3.842	-0.289
0.878	-3.842	-0.295
0.8785	-3.842	-0.261
0.879	-3.842	-0.223
0.8795	-3.842	-0.181
0.88	-3.842	-0.134
0.8805	-3.842	-0.082
0.881	-3.842	-0.034
0.8815	-3.842	0.025
0.882	-3.842	0.066
0.8825	-3.842	0.121
0.883	-3.842	0.169
0.8835	-3.842	0.205
0.884	-3.842	0.245
0.8845	-3.842	0.276
0.885	-3.842	0.279
0.8855	-3.842	0.271
0.886	-3.842	0.269
0.8865	-3.842	0.256
0.887	-3.842	0.227
0.8875	-3.842	0.177
0.888	-3.842	0.094
0.8885	-3.842	0.037
0.889	-3.842	-0.016
0.8895	-3.842	-0.053
0.89	-3.842	-0.127
0.8905	-3.842	-0.183
0.891	-3.842	-0.217
0.8915	-3.842	-0.251
0.892	-3.842	-0.297
0.8925	-3.842	-0.296
0.893	-3.842	-0.287
0.8935	-3.842	-0.286
0.894	-3.842	-0.284
0.8945	-3.842	-0.283
0.895	-3.842	-0.255
0.8955	-3.842	-0.212
0.896	-3.842	-0.167
0.8965	-3.842	-0.115
0.897	-3.842	-0.079
0.8975	-3.842	-0.040
0.898	-3.842	0.019
0.8985	-3.842	0.060
0.899	-3.842	0.108
0.8995	-3.842	0.150
0.9	-3.842	0.197
0.9005	-3.842	0.238
0.901	-3.842	0.261
0.9015	-3.842	0.259
0.902	-3.842	0.239
0.9025	-3.842	0.232
0.903	-3.842	0.228
0.9035	-3.842	0.217
0.904	-3.842	0.186
0.9045	-3.842	0.133
0.905	-3.842	0.087
0.9055	-3.842	0.016
0.906	-3.842	-0.056
0.9065	-3.842	-0.119
0.907	-3.842	-0.177
0.9075	-3.842	-0.218
0.908	-3.842	-0.256
0.9085	-3.842	-0.291
0.909	-3.842	-0.290
0.9095	-3.842	-0.277
0.91	-3.842	-0.275
0.9105	-3.842	-0.281
0.911	-3.842	-0.280
0.9115	-3.842	-0.289
0.912	-3.842	-0.247
0.9125	-3.842	-0.204
0.913	-3.842	-0.133
0.9135	-3.842	-0.089
0.914	-3.842	-0.044
0.9145	-3.842	-0.009
0.915	-3.842	0.048
0.9155	-3.842	0.078
0.916	-3.842	0.129
0.9165	-3.842	0.180
0.917	-3.842	0.232
0.9175	-3.842	0.253
0.918	-3.842	0.255
0.9185	-3.842	0.253
0.919	-3.842	0.252
0.9195	-3.842	0.238
0.92	-3.842	0.206
0.9205	-3.842	0.183
0.921	-3.842	0.116
0.9215	-3.842	0.073
0.922	-3.842	0.031
0.9225	-3.842	-0.021
0.923	-3.842	-0.068
0.9235	-3.842	-0.122
0.924	-3.842	-0.156
0.9245	-3.842	-0.213
0.925	-3.842	-0.249
0.9255	-3.842	-0.282
0.926	-3.842	-0.275
0.9265	-3.842	-0.279
0.927	-3.842	-0.283
0.9275	-3.842	-0.287
0.928	-3.842	-0.286
0.9285	-3.842	-0.278
0.929	-3.842	-0.233
0.9295	-3.842	-0.173
0.93	-3.841	-0.116
0.9305	-3.841	-0.068
0.931	-3.841	-0.007
0.9315	-3.841	0.045
0.932	-3.841	0.084
0.9325	-3.841	0.127
0.933	-3.841	0.161
0.9335	-3.841	0.205
0.934	-3.841	0.237
0.9345	-3.841	0.261
0.935	-3.841	0.258
0.9355	-3.841	0.253
0.936	-3.841	0.263
0.9365	-3.841	0.267
0.937	-3.841	0.226
0.9375	-3.841	0.168
0.938	-3.841	0.105
0.9385	-3.841	0.048
0.939	-3.841	-0.002
0.9395	-3.841	-0.051
0.94	-3.841	-0.113
0.9405	-3.841	-0.171
0.941	-3.841	-0.223
0.9415	-3.841	-0.259
0.942	-3.841	-0.291
0.9425	-3.841	-0.297
0.943	-3.841	-0.284
0.9435	-3.841	-0.292
0.944	-3.841	-0.300
0.9445	-3.841	-0.294
0.945	-3.841	-0.261
0.9455	-3.841	-0.217
0.946	-3.841	-0.168
0.9465	-3.841	-0.097
0.947	-3.841	-0.062
0.9475	-3.841	-0.019
0.948	-3.841	0.021
0.9485	-3.841	0.068
0.949	-3.841	0.092
0.9495	-3.841	0.141
0.95	-3.841	0.191
0.9505	-3.841	0.239
0.951	-3.841	0.254
0.9515	-3.841	0.257
0.952	-3.841	0.249
0.9525	-3.841	0.247
0.953	-3.841	0.238
0.9535	-3.841	0.210
0.954	-3.841	0.174
0.9545	-3.841	0.122
0.955	-3.841	0.074
0.9555	-3.841	0.016
0.956	-3.841	-0.034
0.9565	-3.841	-0.109
0.957	-3.841	-0.158
0.9575	-3.841	-0.202
0.958	-3.841	-0.237
0.9585	-3.841	-0.285
0.959	-3.841	-0.298
0.9595	-3.841	-0.295
0.96	-3.841	-0.300
0.9605	-3.841	-0.293
0.961	-3.841	-0.275
0.9615	-3.841	-0.265
0.962	-3.841	-0.242
0.9625	-3.841	-0.185
0.963	-3.841	-0.125
0.9635	-3.841	-0.088
0.964	-3.841	-0.040
0.9645	-3.841	-0.002
0.965	-3.841	0.041
0.9655	-3.841	0.094
0.966	-3.841	0.149
0.9665	-3.841	0.193
0.967	-3.841	0.229
0.9675	-3.841	0.259
0.968	-3.841	0.271
0.9685	-3.841	0.259
0.969	-3.841	0.251
0.9695	-3.841	0.226
0.97	-3.841	0.202
0.9705	-3.841	0.162
0.971	-3.841	0.124
0.9715	-3.841	0.083
0.972	-3.841	0.040
0.9725	-3.841	0.001
0.973	-3.841	-0.030
0.9735	-3.841	-0.107
0.974	-3.841	-0.173
0.9745	-3.841	-0.230
0.975	-3.841	-0.278
0.9755	-3.841	-0.315
0.976	-3.841	-0.311
0.9765	-3.841	-0.288
0.977	-3.841	-0.277
0.9775	-3.841	-0.276
0.978	-3.841	-0.274
0.9785	-3.841	-0.249
0.979	-3.841	-0.235
0.9795	-3.841	-0.177
0.98	-3.841	-0.129
0.9805	-3.841	-0.079
0.981	-3.841	-0.021
0.9815	-3.841	0.045
0.982	-3.841	0.083
0.9825	-3.841	0.130
0.983	-3.841	0.178
0.9835	-3.841	0.215
0.984	-3.841	0.257
0.9845	-3.841	0.264
0.985	-3.841	0.259
0.9855	-3.841	0.249
0.986	-3.841	0.240
0.9865	-3.841	0.228
0.987	-3.841	0.208
0.9875	-3.841	0.152
0.988	-3.841	0.101
0.9885	-3.841	0.045
0.989	-3.841	0.002
0.9895	-3.841	-0.051
0.99	-3.841	-0.129
0.9905	-3.841	-0.177
0.991	-3.841	-0.222
0.9915	-3.841	-0.260
0.992	-3.841	-0.290
0.9925	-3.841	-0.288
0.993	-3.841	-0.295
0.9935	-3.841	-0.289
0.994	-3.841	-0.291
0.9945	-3.841	-0.286
0.995	-3.841	-0.263
0.9955	-3.841	-0.230
0.996	-3.841	-0.178
0.9965	-3.841	-0.120
0.997	-3.841	-0.064
0.9975	-3.841	-0.005
0.998	-3.841	0.033
0.9985	-3.841	0.060
0.999	-3.841	0.105
0.9995	-3.841	0.158
1.0	-3.841	0.193
1.0005	-3.841	0.250
1.001	-3.841	0.279
1.0015	-3.841	0.287
1.002	-3.841	0.265
1.0025	-3.841	0.249
1.003	-3.841	0.238
1.0035	-3.841	0.214
1.004	-3.841	0.161
1.0045	-3.841	0.105
1.005	-3.841	0.047
1.0055	-3.841	0.000
1.006	-3.841	-0.048
1.0065	-3.841	-0.104
1.007	-3.841	-0.169
1.0075	-3.841	-0.197
1.008	-3.841	-0.241
1.0085	-3.841	-0.271
1.009	-3.841	-0.277
1.0095	-3.841	-0.267
1.01	-3.841	-0.271
1.0105	-3.841	-0.280
1.011	-3.841	-0.285
1.0115	-3.841	-0.280
1.012	-3.841	-0.253
1.0125	-3.841	-0.222
1.013	-3.841	-0.150
1.0135	-3.841	-0.111
1.014	-3.841	-0.066
1.0145	-3.841	-0.011
1.015	-3.841	0.051
1.0155	-3.841	0.097
1.016	-3.841	0.152
1.0165	-3.841	0.203
1.017	-3.841	0.243
1.0175	-3.841	0.267
1.018	-3.841	0.277
1.0185	-3.841	0.256
1.019	-3.841	0.254
1.0195	-3.841	0.259
1.02	-3.841	0.243
1.0205	-3.841	0.212
1.021	-3.841	0.138
1.0215	-3.841	0.087
1.022	-3.841	0.028
1.0225	-3.841	-0.016
1.023	-3.841	-0.076
1.0235	-3.841	-0.131
1.024	-3.841	-0.182
1.0245	-3.841	-0.223
1.025	-3.841	-0.258
1.0255	-3.841	-0.278
1.026	-3.841	-0.283
1.0265	-3.841	-0.287
1.027	-3.841	-0.287
1.0275	-3.841	-0.279
1.028	-3.841	-0.275
1.0285	-3.841	-0.256
1.029	-3.841	-0.216
1.0295	-3.841	-0.177
1.03	-3.841	-0.113
1.0305	-3.841	-0.076
1.031	-3.841	-0.021
1.0315	-3.841	0.036
1.032	-3.841	0.086
1.0325	-3.841	0.127
1.033	-3.841	0.170
1.0335	-3.841	0.214
1.034	-3.841	0.242
1.0345	-3.841	0.266
1.035	-3.841	0.248
1.0355	-3.841	0.253
1.036	-3.841	0.248
1.0365	-3.841	0.239
1.037	-3.841	0.208
1.0375	-3.841	0.152
1.038	-3.841	0.091
1.0385	-3.841	0.048
1.039	-3.841	0.005
1.0395	-3.841	-0.036
1.04	-3.841	-0.093
1.0405	-3.841	-0.146
1.041	-3.841	-0.199
1.0415	-3.841	-0.259
1.042	-3.841	-0.291
1.0425	-3.841	-0.282
1.043	-3.841	-0.294
1.0435	-3.841	-0.308
1.044	-3.841	-0.288
1.0445	-3.841	-0.290
1.045	-3.841	-0.275
1.0455	-3.841	-0.242
1.046	-3.841	-0.191
1.0465	-3.841	-0.133
1.047	-3.841	-0.076
1.0475	-3.841	-0.028
1.048	-3.841	0.021
1.0485	-3.841	0.071
1.049	-3.841	0.105
1.0495	-3.841	0.154
1.05	-3.841	0.197
1.0505	-3.841	0.236
1.051	-3.841	0.257
1.0515	-3.841	0.255
1.052	-3.841	0.252
1.0525	-3.841	0.248
1.053	-3.841	0.237
1.0535	-3.841	0.213
1.054	-3.841	0.159
1.0545	-3.841	0.108
1.055	-3.841	0.059
1.0555	-3.841	0.004
1.056	-3.841	-0.043
1.0565	-3.841	-0.097
1.057	-3.841	-0.152
1.0575	-3.841	-0.207
1.058	-3.841	-0.240
1.0585	-3.841	-0.285
1.059	-3.841	-0.288
1.0595	-3.841	-0.275
1.06	-3.841	-0.267
1.0605	-3.841	-0.278
1.061	-3.841	-0.292
1.0615	-3.841	-0.295
1.062	-3.841	-0.271
1.0625	-3.841	-0.210
1.063	-3.841	-0.146
1.0635	-3.841	-0.086
1.064	-3.841	-0.044
1.0645	-3.841	0.010
1.065	-3.841	0.053
1.0655	-3.841	0.099
1.066	-3.841	0.148
1.0665	-3.841	0.209
1.067	-3.841	0.248
1.0675	-3.841	0.274
1.068	-3.841	0.267
1.0685	-3.841	0.270
1.069	-3.841	0.255
1.0695	-3.841	0.246
1.07	-3.841	0.229
1.0705	-3.841	0.189
1.071	-3.841	0.134
1.0715	-3.841	0.068
1.072	-3.841	0.032
1.0725	-3.841	-0.020
1.073	-3.841	-0.077
1.0735	-3.841	-0.140
1.074	-3.841	-0.180
1.0745	-3.841	-0.234
1.075	-3.841	-0.257
1.0755	-3.841	-0.289
1.076	-3.841	-0.277
1.0765	-3.841	-0.285
1.077	-3.841	-0.275
1.0775	-3.841	-0.279
1.078	-3.841	-0.271
1.0785	-3.841	-0.243
1.079	-3.841	-0.209
1.0795	-3.841	-0.152
1.08	-3.841	-0.120
1.0805	-3.841	-0.066
1.081	-3.841	-0.012
1.0815	-3.841	0.025
1.082	-3.841	0.063
1.0825	-3.841	0.121
1.083	-3.841	0.159
1.0835	-3.841	0.210
1.084	-3.841	0.256
1.0845	-3.841	0.280
1.085	-3.841	0.284
1.0855	-3.841	0.261
1.086	-3.841	0.258
1.0865	-3.841	0.230
1.087	-3.842	0.190
1.0875	-3.842	0.131
1.088	-3.842	0.085
1.0885	-3.842	0.026
1.089	-3.842	-0.013
1.0895	-3.842	-0.061
1.09	-3.842	-0.119
1.0905	-3.842	-0.176
1.091	-3.842	-0.217
1.0915	-3.842	-0.251
1.092	-3.842	-0.289
1.0925	-3.842	-0.292
1.093	-3.842	-0.290
1.0935	-3.842	-0.276
1.094	-3.842	-0.280
1.0945	-3.842	-0.268
1.095	-3.842	-0.252
1.0955	-3.842	-0.224
1.096	-3.842	-0.164
1.0965	-3.842	-0.114
1.097	-3.842	-0.073
1.0975	-3.842	-0.022
1.098	-3.842	0.030
1.0985	-3.842	0.063
1.099	-3.842	0.090
1.0995	-3.842	0.138
1.1	-3.842	0.189
1.1005	-3.842	0.222
1.101	-3.842	0.240
1.1015	-3.842	0.245
1.102	-3.842	0.256
1.1025	-3.842	0.247
1.103	-3.842	0.243
1.1035	-3.842	0.211
1.104	-3.842	0.166
1.1045	-3.842	0.122
1.105	-3.842	0.071
1.1055	-3.842	0.005
1.106	-3.842	-0.051
1.1065	-3.842	-0.096
1.107	-3.842	-0.137
1.1075	-3.842	-0.185
1.108	-3.842	-0.226
1.1085	-3.842	-0.247
1.109	-3.842	-0.255
1.1095	-3.842	-0.275
1.11	-3.842	-0.275
1.1105	-3.842	-0.291
1.111	-3.842	-0.301
1.1115	-3.842	-0.292
1.112	-3.842	-0.260
1.1125	-3.842	-0.204
1.113	-3.842	-0.140
1.1135	-3.842	-0.076
1.114	-3.842	-0.028
1.1145	-3.842	0.015
1.115	-3.842	0.062
1.1155	-3.842	0.092
1.116	-3.842	0.142
1.1165	-3.842	0.185
1.117	-3.842	0.245
1.1175	-3.842	0.261
1.118	-3.842	0.266
1.1185	-3.842	0.249
1.119	-3.842	0.238
1.1195	-3.842	0.238
1.12	-3.842	0.219
1.1205	-3.842	0.177
1.121	-3.842	0.133
1.1215	-3.842	0.080
1.122	-3.842	0.033
1.1225	-3.842	-0.007
1.123	-3.842	-0.069
1.1235	-3.842	-0.131
1.124	-3.842	-0.182
1.1245	-3.842	-0.230
1.125	-3.842	-0.279
1.1255	-3.842	-0.300
1.126	-3.842	-0.281
1.1265	-3.842	-0.279
1.127	-3.842	-0.276
1.1275	-3.842	-0.265
1.128	-3.842	-0.250
1.1285	-3.842	-0.228
1.129	-3.842	-0.190
1.1295	-3.842	-0.150
1.13	-3.842	-0.104
1.1305	-3.842	-0.072
1.131	-3.842	-0.002
1.1315	-3.842	0.048
1.132	-3.842	0.095
1.1325	-3.842	0.151
1.133	-3.842	0.190
1.1335	-3.842	0.215
1.134	-3.842	0.236
1.1345	-3.842	0.254
1.135	-3.842	0.243
1.1355	-3.842	0.243
1.136	-3.842	0.233
1.1365	-3.842	0.228
1.137	-3.842	0.192
1.1375	-3.842	0.145
1.138	-3.842	0.086
1.1385	-3.842	0.058
1.139	-3.842	-0.004
1.1395	-3.842	-0.055
1.14	-3.842	-0.117
1.1405	-3.842	-0.165
1.141	-3.842	-0.206
1.1415	-3.842	-0.246
1.142	-3.842	-0.283
1.1425	-3.842	-0.299
1.143	-3.842	-0.297
1.1435	-3.842	-0.297
1.144	-3.842	-0.298
1.1445	-3.842	-0.297
1.145	-3.842	-0.259
1.1455	-3.842	-0.216
1.146	-3.842	-0.161
1.1465	-3.842	-0.108
1.147	-3.842	-0.076
1.1475	-3.842	-0.040
1.148	-3.842	0.010
1.1485	-3.842	0.061
1.149	-3.842	0.106
1.1495	-3.842	0.151
1.15	-3.842	0.198
1.1505	-3.842	0.249
1.151	-3.842	0.262
1.1515	-3.842	0.263
1.152	-3.842	0.266
1.1525	-3.842	0.273
1.153	-3.842	0.257
1.1535	-3.842	0.226
1.154	-3.842	0.182
1.1545	-3.842	0.121
1.155	-3.842	0.063
1.1555	-3.842	0.010
1.156	-3.842	-0.037
1.1565	-3.842	-0.108
1.157	-3.842	-0.170
1.1575	-3.842	-0.231
1.158	-3.842	-0.263
1.1585	-3.842	-0.306
1.159	-3.844	-0.298
1.1595	-3.844	-0.284
1.16	-3.844	-0.285
1.1605	-3.844	-0.288
1.161	-3.844	-0.282
1.1615	-3.844	-0.285
1.162	-3.844	-0.250
1.1625	-3.844	-0.204
1.163	-3.844	-0.154
1.1635	-3.844	-0.102
1.164	-3.844	-0.043
1.1645	-3.844	0.011
1.165	-3.844	0.058
1.1655	-3.844	0.090
1.166	-3.844	0.156
1.1665	-3.844	0.210
1.167	-3.844	0.256
1.1675	-3.844	0.275
1.168	-3.844	0.264
1.1685	-3.844	0.262
1.169	-3.844	0.257
1.1695	-3.844	0.248
1.17	-3.844	0.211
1.1705	-3.844	0.170
1.171	-3.844	0.126
1.1715	-3.844	0.069
1.172	-3.844	0.022
1.1725	-3.844	-0.030
1.173	-3.844	-0.069
1.1735	-3.844	-0.134
1.174	-3.844	-0.182
1.1745	-3.844	-0.238
1.175	-3.844	-0.269
1.1755	-3.844	-0.304
1.176	-3.844	-0.292
1.1765	-3.844	-0.299
1.177	-3.844	-0.291
1.1775	-3.844	-0.289
1.178	-3.844	-0.276
1.1785	-3.844	-0.261
1.179	-3.844	-0.228
1.1795	-3.844	-0.170
1.18	-3.844	-0.120
1.1805	-3.844	-0.080
1.181	-3.844	-0.028
1.1815	-3.844	0.030
1.182	-3.844	0.079
1.1825	-3.844	0.131
1.183	-3.844	0.178
1.1835	-3.844	0.229
1.184	-3.844	0.241
1.1845	-3.844	0.267
1.185	-3.844	0.269
1.1855	-3.844	0.256
1.186	-3.844	0.242
1.1865	-3.844	0.226
1.187	-3.844	0.206
1.1875	-3.844	0.160
1.188	-3.844	0.095
1.1885	-3.844	0.043
1.189	-3.844	-0.003
1.1895	-3.844	-0.062
1.19	-3.844	-0.109
1.1905	-3.844	-0.165
1.191	-3.844	-0.210
1.1915	-3.844	-0.253
1.192	-3.844	-0.282
1.1925	-3.844	-0.292
1.193	-3.844	-0.299
1.1935	-3.844	-0.298
1.194	-3.844	-0.275
1.1945	-3.844	-0.266
1.195	-3.844	-0.258
1.1955	-3.844	-0.213
1.196	-3.844	-0.153
1.1965	-3.844	-0.100
1.197	-3.844	-0.051
1.1975	-3.844	-0.006
1.198	-3.844	0.038
1.1985	-3.844	0.080
1.199	-3.844	0.108
1.1995	-3.844	0.150
1.2	-3.844	0.208
1.2005	-3.844	0.245
1.201	-3.844	0.262
1.2015	-3.844	0.250
1.202	-3.844	0.257
1.2025	-3.844	0.259
1.203	-3.844	0.242
1.2035	-3.844	0.203
1.204	-3.844	0.164
1.2045	-3.844	0.113
1.205	-3.844	0.063
1.2055	-3.844	0.010
1.206	-3.844	-0.037
1.2065	-3.844	-0.098
1.207	-3.844	-0.166
1.2075	-3.844	-0.215
1.208	-3.844	-0.261
1.2085	-3.844	-0.294
1.209	-3.844	-0.302
1.2095	-3.844	-0.295
1.21	-3.844	-0.292
1.2105	-3.844	-0.279
1.211	-3.844	-0.285
1.2115	-3.844	-0.255
1.212	-3.844	-0.220
1.2125	-3.844	-0.160
1.213	-3.844	-0.103
1.2135	-3.844	-0.045
1.214	-3.844	-0.017
1.2145	-3.844	0.020
1.215	-3.844	0.064
1.2155	-3.844	0.070
1.216	-3.844	0.120
1.2165	-3.844	0.163
1.217	-3.844	0.197
1.2175	-3.845	0.208
1.218	-3.845	0.231
1.2185	-3.845	0.233
1.219	-3.845	0.234
1.2195	-3.845	0.244
1.22	-3.845	0.244
1.2205	-3.845	0.202
1.221	-3.845	0.138
1.2215	-3.845	0.082
1.222	-3.845	0.037
1.2225	-3.845	-0.007
1.223	-3.845	-0.082
1.2235	-3.845	-0.123
1.224	-3.845	-0.171
1.2245	-3.845	-0.214
1.225	-3.845	-0.255
1.2255	-3.845	-0.287
1.226	-3.845	-0.292
1.2265	-3.845	-0.290
1.227	-3.845	-0.293
1.2275	-3.845	-0.301
1.228	-3.845	-0.293
1.2285	-3.845	-0.273
1.229	-3.845	-0.223
1.2295	-3.845	-0.165
1.23	-3.845	-0.118
1.2305	-3.845	-0.069
1.231	-3.845	-0.016
1.2315	-3.845	0.037
1.232	-3.845	0.076
1.2325	-3.845	0.123
1.233	-3.845	0.173
1.2335	-3.845	0.198
1.234	-3.845	0.225
1.2345	-3.845	0.249
1.235	-3.845	0.259
1.2355	-3.845	0.279
1.236	-3.845	0.264
1.2365	-3.845	0.251
1.237	-3.845	0.211
1.2375	-3.845	0.172
1.238	-3.845	0.101
1.2385	-3.845	0.045
1.239	-3.845	-0.013
1.2395	-3.845	-0.047
1.24	-3.845	-0.103
1.2405	-3.845	-0.135
1.241	-3.845	-0.186
1.2415	-3.845	-0.240
1.242	-3.845	-0.290
1.2425	-3.845	-0.289
1.243	-3.845	-0.283
1.2435	-3.845	-0.284
1.244	-3.845	-0.282
1.2445	-3.845	-0.282
1.245	-3.845	-0.257
1.2455	-3.845	-0.234
1.246	-3.845	-0.174
1.2465	-3.845	-0.125
1.247	-3.845	-0.088
1.2475	-3.845	-0.028
1.248	-3.845	0.025
1.2485	-3.845	0.065
1.249	-3.845	0.098
1.2495	-3.845	0.159
1.25	-3.845	0.217
1.2505	-3.845	0.255
1.251	-3.845	0.259
1.2515	-3.845	0.261
1.252	-3.845	0.256
1.2525	-3.845	0.242
1.253	-3.845	0.229
1.2535	-3.845	0.202
1.254	-3.845	0.153
1.2545	-3.845	0.108
1.255	-3.845	0.053
1.2555	-3.845	0.013
1.256	-3.845	-0.028
1.2565	-3.845	-0.091
1.257	-3.845	-0.159
1.2575	-3.845	-0.218
1.258	-3.845	-0.264
1.2585	-3.845	-0.302
1.259	-3.845	-0.304
1.2595	-3.845	-0.292
1.26	-3.845	-0.273
1.2605	-3.845	-0.279
1.261	-3.845	-0.288
1.2615	-3.845	-0.278
1.262	-3.845	-0.243
1.2625	-3.845	-0.181
1.263	-3.845	-0.125
1.2635	-3.845	-0.068
1.264	-3.845	-0.024
1.2645	-3.845	0.015
1.265	-3.845	0.066
1.2655	-3.845	0.098
1.266	-3.845	0.159
1.2665	-3.845	0.197
1.267	-3.845	0.230
1.2675	-3.845	0.243
1.268	-3.845	0.236
1.2685	-3.845	0.249
1.269	-3.845	0.254
1.2695	-3.845	0.251
1.27	-3.845	0.229
1.2705	-3.845	0.191
1.271	-3.845	0.132
1.2715	-3.845	0.060
1.272	-3.845	0.024
1.2725	-3.845	-0.023
1.273	-3.845	-0.083
1.2735	-3.845	-0.142
1.274	-3.845	-0.187
1.2745	-3.845	-0.241
1.275	-3.845	-0.285
1.2755	-3.845	-0.305
1.276	-3.845	-0.291
1.2765	-3.845	-0.298
1.277	-3.845	-0.299
1.2775	-3.845	-0.295
1.278	-3.845	-0.290
1.2785	-3.845	-0.259
1.279	-3.845	-0.207
1.2795	-3.845	-0.142
1.28	-3.845	-0.091
1.2805	-3.845	-0.046
1.281	-3.845	0.001
1.2815	-3.845	0.050
1.282	-3.845	0.066
1.2825	-3.845	0.122
1.283	-3.845	0.170
1.2835	-3.845	0.237
1.284	-3.845	0.278
1.2845	-3.845	0.301
1.285	-3.845	0.275
1.2855	-3.845	0.257
1.286	-3.845	0.243
1.2865	-3.845	0.229
1.287	-3.845	0.196
1.2875	-3.845	0.131
1.288	-3.845	0.073
1.2885	-3.845	0.037
1.289	-3.845	-0.014
1.2895	-3.845	-0.074
1.29	-3.845	-0.133
1.2905	-3.845	-0.179
1.291	-3.845	-0.233
1.2915	-3.845	-0.279
1.292	-3.845	-0.320
1.2925	-3.845	-0.311
1.293	-3.845	-0.293
1.2935	-3.845	-0.293
1.294	-3.845	-0.286
1.2945	-3.845	-0.270
1.295	-3.845	-0.247
1.2955	-3.845	-0.194
1.296	-3.845	-0.156
1.2965	-3.845	-0.095
1.297	-3.845	-0.065
1.2975	-3.845	-0.024
1.298	-3.845	0.019
1.2985	-3.845	0.071
1.299	-3.845	0.108
1.2995	-3.845	0.162
1.3	-3.845	0.216
1.3005	-3.845	0.253
1.301	-3.845	0.269
1.3015	-3.845	0.270
1.302	-3.845	0.263
1.3025	-3.845	0.257
1.303	-3.845	0.246
1.3035	-3.845	0.211
1.304	-3.845	0.173
1.3045	-3.845	0.103
1.305	-3.845	0.053
1.3055	-3.845	-0.002
1.306	-3.845	-0.046
1.3065	-3.845	-0.106
1.307	-3.845	-0.155
1.3075	-3.845	-0.188
1.308	-3.845	-0.243
1.3085	-3.845	-0.278
1.309	-3.845	-0.287
1.3095	-3.845	-0.278
1.31	-3.845	-0.295
1.3105	-3.845	-0.285
1.311	-3.845	-0.287
1.3115	-3.845	-0.274
1.312	-3.845	-0.236
1.3125	-3.845	-0.182
1.313	-3.845	-0.115
1.3135	-3.845	-0.065
1.314	-3.845	-0.024
1.3145	-3.845	0.013
1.315	-3.845	0.048
1.3155	-3.847	0.097
1.316	-3.847	0.155
1.3165	-3.847	0.185
1.317	-3.847	0.232
1.3175	-3.847	0.250
1.318	-3.847	0.262
1.3185	-3.847	0.261
1.319	-3.847	0.262
1.3195	-3.847	0.259
1.32	-3.847	0.239
1.3205	-3.847	0.191
1.321	-3.847	0.129
1.3215	-3.847	0.064
1.322	-3.847	0.010
1.3225	-3.847	-0.037
1.323	-3.847	-0.089
1.3235	-3.847	-0.147
1.324	-3.847	-0.206
1.3245	-3.847	-0.236
1.325	-3.847	-0.282
1.3255	-3.847	-0.291
1.326	-3.847	-0.271
1.3265	-3.847	-0.269
1.327	-3.847	-0.289
1.3275	-3.847	-0.296
1.328	-3.847	-0.278
1.3285	-3.847	-0.246
1.329	-3.847	-0.205
1.3295	-3.847	-0.153
1.33	-3.847	-0.106
1.3305	-3.847	-0.055
1.331	-3.847	0.010
1.3315	-3.847	0.074
1.332	-3.847	0.115
1.3325	-3.847	0.137
1.333	-3.847	0.172
1.3335	-3.847	0.210
1.334	-3.847	0.245
1.3345	-3.847	0.255
1.335	-3.847	0.255
1.3355	-3.847	0.238
1.336	-3.847	0.239
1.3365	-3.847	0.219
1.337	-3.847	0.203
1.3375	-3.847	0.165
1.338	-3.847	0.089
1.3385	-3.847	0.057
1.339	-3.847	-0.003
1.3395	-3.847	-0.069
1.34	-3.847	-0.130
1.3405	-3.847	-0.178
1.341	-3.847	-0.228
1.3415	-3.847	-0.261
1.342	-3.847	-0.296
1.3425	-3.847	-0.292
1.343	-3.847	-0.300
1.3435	-3.847	-0.297
1.344	-3.847	-0.283
1.3445	-3.847	-0.286
1.345	-3.847	-0.258
1.3455	-3.847	-0.226
1.346	-3.847	-0.167
1.3465	-3.847	-0.121
1.347	-3.847	-0.057
1.3475	-3.847	-0.014
1.348	-3.847	0.033
1.3485	-3.847	0.064
1.349	-3.847	0.107
1.3495	-3.847	0.155
1.35	-3.847	0.203
1.3505	-3.847	0.235
1.351	-3.847	0.256
1.3515	-3.847	0.265
1.352	-3.847	0.250
1.3525	-3.847	0.244
1.353	-3.847	0.223
1.3535	-3.847	0.199
1.354	-3.845	0.159
1.3545	-3.845	0.107
1.355	-3.845	0.076
1.3555	-3.845	0.040
1.356	-3.845	-0.026
1.3565	-3.845	-0.100
1.357	-3.845	-0.179
1.3575	-3.845	-0.221
1.358	-3.845	-0.266
1.3585	-3.845	-0.292
1.359	-3.845	-0.294
1.3595	-3.845	-0.284
1.36	-3.845	-0.273
1.3605	-3.845	-0.285
1.361	-3.845	-0.256
1.3615	-3.845	-0.253
1.362	-3.845	-0.227
1.3625	-3.845	-0.180
1.363	-3.845	-0.128
1.3635	-3.845	-0.086
1.364	-3.845	-0.038
1.3645	-3.845	0.013
1.365	-3.845	0.057
1.3655	-3.845	0.098
1.366	-3.845	0.153
1.3665	-3.845	0.200
1.367	-3.845	0.240
1.3675	-3.845	0.252
1.368	-3.845	0.270
1.3685	-3.845	0.272
1.369	-3.845	0.255
1.3695	-3.845	0.245
1.37	-3.845	0.225
1.3705	-3.845	0.179
1.371	-3.845	0.133
1.3715	-3.845	0.083
1.372	-3.845	0.030
1.3725	-3.845	-0.043
1.373	-3.845	-0.090
1.3735	-3.845	-0.147
1.374	-3.845	-0.196
1.3745	-3.845	-0.246
1.375	-3.845	-0.288
1.3755	-3.845	-0.297
1.376	-3.845	-0.295
1.3765	-3.845	-0.289
1.377	-3.845	-0.276
1.3775	-3.845	-0.268
1.378	-3.845	-0.265
1.3785	-3.845	-0.244
1.379	-3.845	-0.213
1.3795	-3.845	-0.161
1.38	-3.845	-0.114
1.3805	-3.845	-0.074
1.381	-3.845	-0.028
1.3815	-3.845	0.022
1.382	-3.845	0.061
1.3825	-3.845	0.122
1.383	-3.845	0.172
1.3835	-3.845	0.216
1.384	-3.845	0.242
1.3845	-3.845	0.255
1.385	-3.845	0.252
1.3855	-3.845	0.257
1.386	-3.845	0.253
1.3865	-3.845	0.232
1.387	-3.845	0.192
1.3875	-3.845	0.136
1.388	-3.845	0.086
1.3885	-3.845	0.037
1.389	-3.845	-0.007
1.3895	-3.845	-0.047
1.39	-3.845	-0.106
1.3905	-3.845	-0.155
1.391	-3.845	-0.210
1.3915	-3.845	-0.266
1.392	-3.845	-0.293
1.3925	-3.845	-0.274
1.393	-3.845	-0.275
1.3935	-3.845	-0.273
1.394	-3.845	-0.286
1.3945	-3.845	-0.278
1.395	-3.845	-0.263
1.3955	-3.845	-0.220
1.396	-3.845	-0.168
1.3965	-3.845	-0.115
1.397	-3.845	-0.068
1.3975	-3.845	-0.009
1.398	-3.845	0.043
1.3985	-3.845	0.082
1.399	-3.845	0.120
1.3995	-3.845	0.176
1.4	-3.845	0.213
1.4005	-3.845	0.246
1.401	-3.845	0.258
1.4015	-3.845	0.255
1.402	-3.845	0.256
1.4025	-3.845	0.251
1.403	-3.845	0.250
1.4035	-3.845	0.220
1.404	-3.845	0.163
1.4045	-3.845	0.105
1.405	-3.845	0.060
1.4055	-3.845	-0.002
1.406	-3.845	-0.047
1.4065	-3.845	-0.102
1.407	-3.845	-0.158
1.4075	-3.845	-0.220
1.408	-3.845	-0.247
1.4085	-3.845	-0.280
1.409	-3.845	-0.287
1.4095	-3.845	-0.278
1.41	-3.845	-0.278
1.4105	-3.845	-0.283
1.411	-3.845	-0.284
1.4115	-3.845	-0.264
1.412	-3.845	-0.228
1.4125	-3.845	-0.175
1.413	-3.845	-0.109
1.4135	-3.845	-0.057
1.414	-3.845	-0.006
1.4145	-3.845	0.030
1.415	-3.845	0.066
1.4155	-3.845	0.088
1.416	-3.845	0.143
1.4165	-3.845	0.188
1.417	-3.845	0.226
1.4175	-3.845	0.244
1.418	-3.845	0.253
1.4185	-3.845	0.245
1.419	-3.845	0.250
1.4195	-3.845	0.232
1.42	-3.845	0.227
1.4205	-3.845	0.188
1.421	-3.845	0.135
1.4215	-3.845	0.068
1.422	-3.845	0.033
1.4225	-3.845	-0.033
1.423	-3.845	-0.091
1.4235	-3.845	-0.146
1.424	-3.845	-0.192
1.4245	-3.845	-0.239
1.425	-3.845	-0.283
1.4255	-3.845	-0.297
1.426	-3.845	-0.284
1.4265	-3.845	-0.276
1.427	-3.845	-0.279
1.4275	-3.845	-0.285
1.428	-3.845	-0.280
1.4285	-3.845	-0.255
1.429	-3.845	-0.215
1.4295	-3.845	-0.153
1.43	-3.845	-0.099
1.4305	-3.845	-0.051
1.431	-3.845	-0.005
1.4315	-3.845	0.041
1.432	-3.845	0.081
1.4325	-3.845	0.137
1.433	-3.845	0.198
1.4335	-3.845	0.242
1.434	-3.845	0.273
1.4345	-3.845	0.276
1.435	-3.845	0.255
1.4355	-3.845	0.246
1.436	-3.845	0.246
1.4365	-3.845	0.214
1.437	-3.845	0.189
1.4375	-3.845	0.145
1.438	-3.845	0.106
1.4385	-3.845	0.065
1.439	-3.845	-0.005
1.4395	-3.845	-0.064
1.44	-3.845	-0.138
1.4405	-3.845	-0.187
1.441	-3.845	-0.236
1.4415	-3.845	-0.268
1.442	-3.845	-0.312
1.4425	-3.845	-0.307
1.443	-3.845	-0.310
1.4435	-3.845	-0.306
1.444	-3.845	-0.309
1.4445	-3.845	-0.294
1.445	-3.845	-0.270
1.4455	-3.845	-0.216
1.446	-3.845	-0.140
1.4465	-3.845	-0.090
1.447	-3.845	-0.042
1.4475	-3.845	-0.022
1.448	-3.845	0.027
1.4485	-3.845	0.058
1.449	-3.845	0.103
1.4495	-3.845	0.157
1.45	-3.845	0.219
1.4505	-3.845	0.238
1.451	-3.845	0.253
1.4515	-3.845	0.248
1.452	-3.845	0.242
1.4525	-3.845	0.225
1.453	-3.845	0.220
1.4535	-3.845	0.214
1.454	-3.845	0.176
1.4545	-3.845	0.123
1.455	-3.845	0.097
1.4555	-3.845	0.059
1.456	-3.845	-0.013
1.4565	-3.845	-0.098
1.457	-3.845	-0.164
1.4575	-3.845	-0.217
1.458	-3.845	-0.261
1.4585	-3.845	-0.296
1.459	-3.845	-0.308
1.4595	-3.845	-0.306
1.46	-3.845	-0.303
1.4605	-3.845	-0.301
1.461	-3.845	-0.289
1.4615	-3.845	-0.288
1.462	-3.845	-0.247
1.4625	-3.845	-0.195
1.463	-3.845	-0.120
1.4635	-3.845	-0.068
1.464	-3.845	-0.019
1.4645	-3.845	0.023
1.465	-3.845	0.068
1.4655	-3.845	0.099
1.466	-3.845	0.149
1.4665	-3.845	0.191
1.467	-3.845	0.233
1.4675	-3.845	0.268
1.468	-3.845	0.255
1.4685	-3.845	0.232
1.469	-3.845	0.230
1.4695	-3.845	0.227
1.47	-3.845	0.210
1.4705	-3.845	0.185
1.471	-3.845	0.132
1.4715	-3.845	0.080
1.472	-3.844	0.024
1.4725	-3.844	-0.022
1.473	-3.844	-0.079
1.4735	-3.844	-0.145
1.474	-3.844	-0.199
1.4745	-3.844	-0.260
1.475	-3.844	-0.297
1.4755	-3.844	-0.313
1.476	-3.844	-0.290
1.4765	-3.844	-0.289
1.477	-3.844	-0.295
1.4775	-3.844	-0.292
1.478	-3.844	-0.280
1.4785	-3.844	-0.268
1.479	-3.844	-0.216
1.4795	-3.844	-0.158
1.48	-3.844	-0.100
1.4805	-3.844	-0.049
1.481	-3.844	0.006
1.4815	-3.844	0.061
1.482	-3.844	0.101
1.4825	-3.844	0.152
1.483	-3.844	0.190
1.4835	-3.844	0.241
1.484	-3.844	0.255
1.4845	-3.844	0.278
1.485	-3.844	0.273
1.4855	-3.844	0.258
1.486	-3.844	0.258
1.4865	-3.844	0.240
1.487	-3.844	0.208
1.4875	-3.844	0.146
1.488	-3.844	0.090
1.4885	-3.844	0.048
1.489	-3.844	-0.002
1.4895	-3.844	-0.054
1.49	-3.844	-0.096
1.4905	-3.844	-0.144
1.491	-3.844	-0.194
1.4915	-3.844	-0.252
1.492	-3.844	-0.294
1.4925	-3.844	-0.302
1.493	-3.844	-0.307
1.4935	-3.844	-0.298
1.494	-3.844	-0.296
1.4945	-3.844	-0.297
1.495	-3.844	-0.275
1.4955	-3.844	-0.233
1.496	-3.844	-0.180
1.4965	-3.844	-0.118
1.497	-3.844	-0.065
1.4975	-3.844	-0.014
1.498	-3.844	0.030
1.4985	-3.844	0.064
1.499	-3.844	0.107
1.4995	-3.844	0.166
1.5	-3.844	0.209
1.5005	-3.844	0.245
1.501	-3.844	0.262
1.5015	-3.844	0.258
1.502	-3.844	0.260
1.5025	-3.844	0.254
1.503	-3.844	0.246
1.5035	-3.844	0.209
1.504	-3.844	0.156
1.5045	-3.844	0.092
1.505	-3.844	0.044
1.5055	-3.844	-0.000
1.506	-3.844	-0.061
1.5065	-3.844	-0.121
1.507	-3.844	-0.163
1.5075	-3.844	-0.223
1.508	-3.844	-0.278
1.5085	-3.844	-0.316
1.509	-3.844	-0.313
1.5095	-3.844	-0.305
1.51	-3.844	-0.305
1.5105	-3.844	-0.302
1.511	-3.844	-0.287
1.5115	-3.844	-0.272
1.512	-3.844	-0.248
1.5125	-3.844	-0.192
1.513	-3.844	-0.122
1.5135	-3.844	-0.077
1.514	-3.844	-0.022
1.5145	-3.844	0.042
1.515	-3.844	0.081
1.5155	-3.844	0.119
1.516	-3.844	0.164
1.5165	-3.844	0.199
1.517	-3.844	0.236
1.5175	-3.844	0.258
1.518	-3.844	0.256
1.5185	-3.844	0.261
1.519	-3.844	0.256
1.5195	-3.844	0.242
1.52	-3.844	0.221
1.5205	-3.844	0.159
1.521	-3.844	0.120
1.5215	-3.844	0.069
1.522	-3.844	0.025
1.5225	-3.844	-0.009
1.523	-3.844	-0.071
1.5235	-3.844	-0.143
1.524	-3.844	-0.198
1.5245	-3.844	-0.232
1.525	-3.844	-0.276
1.5255	-3.844	-0.288
1.526	-3.844	-0.287
1.5265	-3.844	-0.278
1.527	-3.844	-0.280
1.5275	-3.844	-0.265
1.528	-3.844	-0.260
1.5285	-3.844	-0.236
1.529	-3.844	-0.197
1.5295	-3.844	-0.143
1.53	-3.844	-0.096
1.5305	-3.844	-0.053
1.531	-3.844	-0.004
1.5315	-3.844	0.044
1.532	-3.844	0.083
1.5325	-3.844	0.124
1.533	-3.844	0.181
1.5335	-3.844	0.223
1.534	-3.844	0.257
1.5345	-3.844	0.253
1.535	-3.844	0.253
1.5355	-3.844	0.253
1.536	-3.844	0.245
1.5365	-3.844	0.238
1.537	-3.844	0.218
1.5375	-3.844	0.166
1.538	-3.844	0.094
1.5385	-3.844	0.043
1.539	-3.844	-0.012
1.5395	-3.844	-0.059
1.54	-3.844	-0.127
1.5405	-3.844	-0.172
1.541	-3.844	-0.214
1.5415	-3.844	-0.245
1.542	-3.844	-0.272
1.5425	-3.844	-0.256
1.543	-3.844	-0.269
1.5435	-3.844	-0.290
1.544	-3.844	-0.303
1.5445	-3.844	-0.292
1.545	-3.844	-0.270
1.5455	-3.844	-0.217
1.546	-3.844	-0.172
1.5465	-3.844	-0.122
1.547	-3.844	-0.068
1.5475	-3.844	-0.031
1.548	-3.844	0.013
1.5485	-3.844	0.058
1.549	-3.844	0.121
1.5495	-3.844	0.176
1.55	-3.844	0.225
1.5505	-3.844	0.279
1.551	-3.844	0.289
1.5515	-3.844	0.276
1.552	-3.844	0.245
1.5525	-3.844	0.225
1.553	-3.844	0.206
1.5535	-3.844	0.170
1.554	-3.844	0.146
1.5545	-3.844	0.104
1.555	-3.844	0.063
1.5555	-3.844	0.024
1.556	-3.844	-0.017
1.5565	-3.844	-0.081
1.557	-3.844	-0.138
1.5575	-3.844	-0.181
1.558	-3.844	-0.235
1.5585	-3.844	-0.288
1.559	-3.844	-0.309
1.5595	-3.844	-0.297
1.56	-3.844	-0.291
1.5605	-3.844	-0.291
1.561	-3.844	-0.292
1.5615	-3.844	-0.284
1.562	-3.844	-0.239
1.5625	-3.844	-0.195
1.563	-3.844	-0.122
1.5635	-3.844	-0.070
1.564	-3.844	-0.017
1.5645	-3.844	0.019
1.565	-3.844	0.055
1.5655	-3.844	0.088
1.566	-3.844	0.138
1.5665	-3.844	0.181
1.567	-3.844	0.226
1.5675	-3.844	0.253
1.568	-3.844	0.256
1.5685	-3.844	0.253
1.569	-3.844	0.243
1.5695	-3.844	0.230
1.57	-3.844	0.208
1.5705	-3.844	0.166
1.571	-3.844	0.098
1.5715	-3.844	0.060
1.572	-3.844	0.017
1.5725	-3.844	-0.036
1.573	-3.844	-0.093
1.5735	-3.844	-0.137
1.574	-3.844	-0.181
1.5745	-3.844	-0.225
1.575	-3.844	-0.257
1.5755	-3.844	-0.283
1.576	-3.844	-0.280
1.5765	-3.844	-0.285
1.577	-3.844	-0.272
1.5775	-3.844	-0.262
1.578	-3.844	-0.273
1.5785	-3.844	-0.263
1.579	-3.844	-0.209
1.5795	-3.844	-0.169
1.58	-3.844	-0.118
1.5805	-3.844	-0.061
1.581	-3.844	0.000
1.5815	-3.844	0.052
1.582	-3.844	0.088
1.5825	-3.844	0.145
1.583	-3.844	0.189
1.5835	-3.844	0.237
1.584	-3.844	0.264
1.5845	-3.844	0.266
1.585	-3.844	0.250
1.5855	-3.844	0.240
1.586	-3.844	0.239
1.5865	-3.844	0.215
1.587	-3.844	0.180
1.5875	-3.844	0.138
1.588	-3.844	0.073
1.5885	-3.844	0.030
1.589	-3.844	-0.014
1.5895	-3.844	-0.065
1.59	-3.844	-0.123
1.5905	-3.844	-0.185
1.591	-3.844	-0.232
1.5915	-3.844	-0.271
1.592	-3.844	-0.300
1.5925	-3.844	-0.299
1.593	-3.844	-0.291
1.5935	-3.844	-0.292
1.594	-3.844	-0.281
1.5945	-3.844	-0.275
1.595	-3.844	-0.261
1.5955	-3.844	-0.217
1.596	-3.844	-0.159
1.5965	-3.844	-0.108
1.597	-3.844	-0.066
1.5975	-3.844	-0.030
1.598	-3.844	0.024
1.5985	-3.844	0.065
1.599	-3.844	0.111
1.5995	-3.844	0.173
1.6	-3.844	0.232
1.6005	-3.844	0.255
1.601	-3.844	0.275
1.6015	-3.844	0.265
1.602	-3.844	0.252
1.6025	-3.844	0.264
1.603	-3.844	0.267
1.6035	-3.844	0.237
1.604	-3.844	0.183
1.6045	-3.844	0.108
1.605	-3.844	0.056
1.6055	-3.844	-0.008
1.606	-3.844	-0.058
1.6065	-3.844	-0.112
1.607	-3.844	-0.152
1.6075	-3.844	-0.198
1.608	-3.844	-0.241
1.6085	-3.844	-0.295
1.609	-3.844	-0.304
1.6095	-3.844	-0.303
1.61	-3.844	-0.296
1.6105	-3.844	-0.293
1.611	-3.844	-0.290
1.6115	-3.844	-0.278
1.612	-3.844	-0.240
1.6125	-3.844	-0.185
1.613	-3.844	-0.150
1.6135	-3.844	-0.086
1.614	-3.844	-0.030
1.6145	-3.844	0.020
1.615	-3.844	0.070
1.6155	-3.844	0.095
1.616	-3.844	0.138
1.6165	-3.844	0.171
1.617	-3.844	0.205
1.6175	-3.844	0.228
1.618	-3.844	0.227
1.6185	-3.844	0.238
1.619	-3.844	0.252
1.6195	-3.844	0.256
1.62	-3.844	0.236
1.6205	-3.844	0.208
1.621	-3.844	0.142
1.6215	-3.844	0.088
1.622	-3.844	0.037
1.6225	-3.844	-0.022
1.623	-3.844	-0.095
1.6235	-3.844	-0.151
1.624	-3.844	-0.203
1.6245	-3.844	-0.255
1.625	-3.844	-0.296
1.6255	-3.844	-0.313
1.626	-3.844	-0.316
1.6265	-3.844	-0.311
1.627	-3.844	-0.308
1.6275	-3.844	-0.299
1.628	-3.844	-0.287
1.6285	-3.844	-0.250
1.629	-3.844	-0.189
1.6295	-3.844	-0.123
1.63	-3.844	-0.083
1.6305	-3.844	-0.032
1.631	-3.844	0.009
1.6315	-3.844	0.047
1.632	-3.844	0.085
1.6325	-3.844	0.140
1.633	-3.844	0.178
1.6335	-3.844	0.227
1.634	-3.844	0.250
1.6345	-3.844	0.266
1.635	-3.844	0.270
1.6355	-3.844	0.275
1.636	-3.844	0.269
1.6365	-3.844	0.228
1.637	-3.844	0.176
1.6375	-3.844	0.119
1.638	-3.844	0.063
1.6385	-3.844	0.008
1.639	-3.844	-0.025
1.6395	-3.844	-0.085
1.64	-3.844	-0.151
1.6405	-3.844	-0.190
1.641	-3.844	-0.241
1.6415	-3.844	-0.260
1.642	-3.844	-0.285
1.6425	-3.844	-0.274
1.643	-3.844	-0.279
1.6435	-3.844	-0.281
1.644	-3.844	-0.293
1.6445	-3.844	-0.287
1.645	-3.844	-0.260
1.6455	-3.844	-0.218
1.646	-3.844	-0.164
1.6465	-3.844	-0.107
1.647	-3.844	-0.067
1.6475	-3.844	-0.017
1.648	-3.844	0.023
1.6485	-3.844	0.070
1.649	-3.844	0.133
1.6495	-3.844	0.186
1.65	-3.844	0.229
1.6505	-3.844	0.254
1.651	-3.844	0.254
1.6515	-3.844	0.242
1.652	-3.844	0.254
1.6525	-3.844	0.234
1.653	-3.844	0.237
1.6535	-3.844	0.203
1.654	-3.844	0.153
1.6545	-3.844	0.102
1.655	-3.844	0.050
1.6555	-3.844	0.004
1.656	-3.844	-0.048
1.6565	-3.844	-0.106
1.657	-3.844	-0.160
1.6575	-3.844	-0.204
1.658	-3.844	-0.254
1.6585	-3.844	-0.297
1.659	-3.844	-0.300
1.6595	-3.844	-0.302
1.66	-3.844	-0.294
1.6605	-3.844	-0.294
1.661	-3.844	-0.291
1.6615	-3.844	-0.278
1.662	-3.844	-0.235
1.6625	-3.844	-0.183
1.663	-3.844	-0.120
1.6635	-3.844	-0.073
1.664	-3.844	-0.016
1.6645	-3.844	0.026
1.665	-3.844	0.056
1.6655	-3.844	0.096
1.666	-3.844	0.149
1.6665	-3.844	0.193
1.667	-3.844	0.238
1.6675	-3.844	0.260
1.668	-3.844	0.256
1.6685	-3.844	0.245
1.669	-3.844	0.239
1.6695	-3.844	0.252
1.67	-3.844	0.225
1.6705	-3.844	0.177
1.671	-3.844	0.109
1.6715	-3.844	0.051
1.672	-3.844	-0.007
1.6725	-3.844	-0.046
1.673	-3.844	-0.112
1.6735	-3.844	-0.157
1.674	-3.844	-0.201
1.6745	-3.844	-0.243
1.675	-3.844	-0.281
1.6755	-3.844	-0.291
1.676	-3.845	-0.288
1.6765	-3.845	-0.284
1.677	-3.845	-0.283
1.6775	-3.845	-0.281
1.678	-3.845	-0.273
1.6785	-3.845	-0.251
1.679	-3.845	-0.205
1.6795	-3.845	-0.151
1.68	-3.845	-0.099
1.6805	-3.845	-0.063
1.681	-3.845	-0.011
1.6815	-3.845	0.033
1.682	-3.845	0.086
1.6825	-3.845	0.130
1.683	-3.845	0.196
1.6835	-3.845	0.235
1.684	-3.845	0.255
1.6845	-3.845	0.268
1.685	-3.845	0.262
1.6855	-3.845	0.253
1.686	-3.845	0.230
1.6865	-3.845	0.219
1.687	-3.845	0.182
1.6875	-3.845	0.139
1.688	-3.845	0.091
1.6885	-3.845	0.052
1.689	-3.845	-0.010
1.6895	-3.845	-0.072
1.69	-3.845	-0.126
1.6905	-3.845	-0.180
1.691	-3.845	-0.228
1.6915	-3.845	-0.265
1.692	-3.845	-0.273
1.6925	-3.845	-0.267
1.693	-3.845	-0.266
1.6935	-3.845	-0.262
1.694	-3.845	-0.266
1.6945	-3.845	-0.278
1.695	-3.845	-0.247
1.6955	-3.845	-0.206
1.696	-3.845	-0.159
1.6965	-3.845	-0.110
1.697	-3.845	-0.064
1.6975	-3.845	-0.022
1.698	-3.845	0.027
1.6985	-3.845	0.061
1.699	-3.845	0.095
1.6995	-3.845	0.134
1.7	-3.845	0.184
1.7005	-3.845	0.239
1.701	-3.845	0.258
1.7015	-3.845	0.257
1.702	-3.845	0.243
1.7025	-3.845	0.246
1.703	-3.845	0.222
1.7035	-3.845	0.186
1.704	-3.845	0.141
1.7045	-3.845	0.085
1.705	-3.845	0.048
1.7055	-3.845	0.001
1.706	-3.845	-0.050
1.7065	-3.845	-0.118
1.707	-3.845	-0.172
1.7075	-3.845	-0.214
1.708	-3.845	-0.251
1.7085	-3.845	-0.297
1.709	-3.845	-0.295
1.7095	-3.845	-0.290
1.71	-3.845	-0.290
1.7105	-3.845	-0.279
1.711	-3.845	-0.278
1.7115	-3.845	-0.276
1.712	-3.845	-0.244
1.7125	-3.845	-0.181
1.713	-3.845	-0.108
1.7135	-3.845	-0.054
1.714	-3.845	-0.023
1.7145	-3.845	0.023
1.715	-3.845	0.075
1.7155	-3.845	0.098
1.716	-3.845	0.148
1.7165	-3.845	0.201
1.717	-3.845	0.230
1.7175	-3.845	0.233
1.718	-3.845	0.242
1.7185	-3.845	0.245
1.719	-3.845	0.240
1.7195	-3.845	0.244
1.72	-3.845	0.228
1.7205	-3.845	0.184
1.721	-3.845	0.140
1.7215	-3.845	0.083
1.722	-3.845	0.029
1.7225	-3.845	-0.025
1.723	-3.845	-0.092
1.7235	-3.845	-0.151
1.724	-3.845	-0.190
1.7245	-3.845	-0.231
1.725	-3.845	-0.274
1.7255	-3.845	-0.297
1.726	-3.845	-0.304
1.7265	-3.845	-0.296
1.727	-3.845	-0.304
1.7275	-3.845	-0.295
1.728	-3.845	-0.279
1.7285	-3.845	-0.244
1.729	-3.845	-0.194
1.7295	-3.845	-0.146
1.73	-3.845	-0.106
1.7305	-3.845	-0.054
1.731	-3.845	-0.015
1.7315	-3.845	0.040
1.732	-3.845	0.094
1.7325	-3.845	0.139
1.733	-3.845	0.172
1.7335	-3.845	0.223
1.734	-3.845	0.239
1.7345	-3.845	0.251
1.735	-3.845	0.246
1.7355	-3.845	0.241
1.736	-3.845	0.239
1.7365	-3.845	0.211
1.737	-3.845	0.179
1.7375	-3.845	0.125
1.738	-3.845	0.076
1.7385	-3.845	0.049
1.739	-3.845	0.005
1.7395	-3.845	-0.062
1.74	-3.845	-0.112
1.7405	-3.845	-0.176
1.741	-3.847	-0.219
1.7415	-3.847	-0.264
1.742	-3.847	-0.275
1.7425	-3.847	-0.276
1.743	-3.847	-0.278
1.7435	-3.847	-0.281
1.744	-3.847	-0.276
1.7445	-3.847	-0.279
1.745	-3.847	-0.262
1.7455	-3.847	-0.206
1.746	-3.847	-0.155
1.7465	-3.847	-0.102
1.747	-3.847	-0.046
1.7475	-3.847	0.005
1.748	-3.847	0.053
1.7485	-3.847	0.082
1.749	-3.847	0.110
1.7495	-3.847	0.154
1.75	-3.847	0.199
1.7505	-3.847	0.226
1.751	-3.847	0.244
1.7515	-3.847	0.244
1.752	-3.847	0.224
1.7525	-3.847	0.229
1.753	-3.847	0.204
1.7535	-3.847	0.173
1.754	-3.847	0.132
1.7545	-3.847	0.084
1.755	-3.847	0.049
1.7555	-3.847	0.013
1.756	-3.847	-0.029
1.7565	-3.847	-0.097
1.757	-3.847	-0.155
1.7575	-3.847	-0.210
1.758	-3.847	-0.265
1.7585	-3.847	-0.305
1.759	-3.847	-0.329
1.7595	-3.847	-0.324
1.76	-3.847	-0.323
1.7605	-3.847	-0.331
1.761	-3.847	-0.320
1.7615	-3.847	-0.301
1.762	-3.847	-0.245
1.7625	-3.847	-0.200
1.763	-3.847	-0.143
1.7635	-3.847	-0.100
1.764	-3.847	-0.038
1.7645	-3.847	0.008
1.765	-3.847	0.061
1.7655	-3.847	0.090
1.766	-3.847	0.149
1.7665	-3.847	0.194
1.767	-3.847	0.243
1.7675	-3.847	0.246
1.768	-3.847	0.269
1.7685	-3.847	0.255
1.769	-3.847	0.256
1.7695	-3.847	0.258
1.77	-3.847	0.243
1.7705	-3.847	0.191
1.771	-3.847	0.124
1.7715	-3.847	0.062
1.772	-3.847	0.014
1.7725	-3.847	-0.035
1.773	-3.847	-0.113
1.7735	-3.847	-0.152
1.774	-3.847	-0.201
1.7745	-3.847	-0.246
1.775	-3.847	-0.275
1.7755	-3.847	-0.268
1.776	-3.847	-0.276
1.7765	-3.847	-0.280
1.777	-3.847	-0.283
1.7775	-3.847	-0.283
1.778	-3.847	-0.281
1.7785	-3.847	-0.250
1.779	-3.847	-0.191
1.7795	-3.847	-0.143
1.78	-3.847	-0.088
1.7805	-3.847	-0.046
1.781	-3.847	0.000
1.7815	-3.847	0.050
1.782	-3.847	0.110
1.7825	-3.847	0.156
1.783	-3.847	0.204
1.7835	-3.847	0.238
1.784	-3.847	0.255
1.7845	-3.847	0.257
1.785	-3.847	0.253
1.7855	-3.847	0.246
1.786	-3.847	0.232
1.7865	-3.847	0.213
1.787	-3.847	0.165
1.7875	-3.847	0.128
1.788	-3.847	0.081
1.7885	-3.847	0.032
1.789	-3.847	-0.025
1.7895	-3.847	-0.078
1.79	-3.847	-0.141
1.7905	-3.847	-0.179
1.791	-3.847	-0.209
1.7915	-3.847	-0.244
1.792	-3.847	-0.261
1.7925	-3.847	-0.264
1.793	-3.847	-0.270
1.7935	-3.848	-0.288
1.794	-3.848	-0.303
1.7945	-3.848	-0.314
1.795	-3.848	-0.296
1.7955	-3.848	-0.231
1.796	-3.848	-0.149
1.7965	-3.848	-0.088
1.797	-3.848	-0.049
1.7975	-3.848	-0.007
1.798	-3.848	0.044
1.7985	-3.848	0.083
1.799	-3.848	0.124
1.7995	-3.848	0.176
1.8	-3.848	0.215
1.8005	-3.848	0.247
1.801	-3.848	0.255
1.8015	-3.848	0.261
1.802	-3.848	0.267
1.8025	-3.848	0.260
1.803	-3.848	0.254
1.8035	-3.848	0.215
1.804	-3.848	0.162
1.8045	-3.848	0.099
1.805	-3.848	0.039
1.8055	-3.848	-0.019
1.806	-3.848	-0.085
1.8065	-3.848	-0.126
1.807	-3.848	-0.177
1.8075	-3.848	-0.215
1.808	-3.848	-0.261
1.8085	-3.848	-0.313
1.809	-3.848	-0.303
1.8095	-3.848	-0.310
1.81	-3.848	-0.303
1.8105	-3.848	-0.307
1.811	-3.848	-0.298
1.8115	-3.848	-0.279
1.812	-3.848	-0.234
1.8125	-3.848	-0.175
1.813	-3.848	-0.117
1.8135	-3.848	-0.058
1.814	-3.848	0.000
1.8145	-3.848	0.045
1.815	-3.848	0.070
1.8155	-3.848	0.113
1.816	-3.848	0.160
1.8165	-3.848	0.229
1.817	-3.848	0.276
1.8175	-3.848	0.291
1.818	-3.848	0.267
1.8185	-3.848	0.279
1.819	-3.848	0.263
1.8195	-3.848	0.251
1.82	-3.848	0.224
1.8205	-3.848	0.190
1.821	-3.848	0.128
1.8215	-3.848	0.063
1.822	-3.848	0.023
1.8225	-3.848	-0.027
1.823	-3.848	-0.081
1.8235	-3.848	-0.135
1.824	-3.848	-0.173
1.8245	-3.848	-0.212
1.825	-3.848	-0.255
1.8255	-3.848	-0.290
1.826	-3.848	-0.292
1.8265	-3.848	-0.295
1.827	-3.848	-0.295
1.8275	-3.848	-0.289
1.828	-3.848	-0.263
1.8285	-3.848	-0.236
1.829	-3.848	-0.189
1.8295	-3.848	-0.134
1.83	-3.848	-0.083
1.8305	-3.848	-0.044
1.831	-3.848	0.009
1.8315	-3.848	0.055
1.832	-3.848	0.081
1.8325	-3.848	0.131
1.833	-3.848	0.170
1.8335	-3.848	0.214
1.834	-3.848	0.240
1.8345	-3.848	0.255
1.835	-3.848	0.247
1.8355	-3.848	0.244
1.836	-3.848	0.254
1.8365	-3.848	0.225
1.837	-3.848	0.181
1.8375	-3.848	0.119
1.838	-3.848	0.057
1.8385	-3.848	0.023
1.839	-3.848	-0.018
1.8395	-3.848	-0.061
1.84	-3.848	-0.096
1.8405	-3.848	-0.160
1.841	-3.848	-0.219
1.8415	-3.848	-0.278
1.842	-3.848	-0.289
1.8425	-3.848	-0.281
1.843	-3.848	-0.274
1.8435	-3.848	-0.275
1.844	-3.848	-0.290
1.8445	-3.848	-0.286
1.845	-3.848	-0.259
1.8455	-3.848	-0.219
1.846	-3.848	-0.156
1.8465	-3.848	-0.100
1.847	-3.848	-0.069
1.8475	-3.848	-0.012
1.848	-3.848	0.050
1.8485	-3.848	0.085
1.849	-3.848	0.127
1.8495	-3.848	0.161
1.85	-3.848	0.215
1.8505	-3.848	0.250
1.851	-3.850	0.271
1.8515	-3.850	0.253
1.852	-3.850	0.243
1.8525	-3.850	0.249
1.853	-3.850	0.237
1.8535	-3.850	0.207
1.854	-3.850	0.159
1.8545	-3.850	0.094
1.855	-3.850	0.035
1.8555	-3.850	-0.007
1.856	-3.850	-0.055
1.8565	-3.850	-0.115
1.857	-3.850	-0.169
1.8575	-3.850	-0.203
1.858	-3.850	-0.250
1.8585	-3.850	-0.292
1.859	-3.850	-0.293
1.8595	-3.850	-0.280
1.86	-3.850	-0.294
1.8605	-3.850	-0.282
1.861	-3.850	-0.284
1.8615	-3.850	-0.266
1.862	-3.850	-0.226
1.8625	-3.850	-0.168
1.863	-3.850	-0.113
1.8635	-3.850	-0.074
1.864	-3.850	-0.031
1.8645	-3.850	0.017
1.865	-3.850	0.062
1.8655	-3.850	0.110
1.866	-3.850	0.153
1.8665	-3.850	0.195
1.867	-3.850	0.238
1.8675	-3.850	0.255
1.868	-3.850	0.244
1.8685	-3.850	0.243
1.869	-3.850	0.249
1.8695	-3.850	0.243
1.87	-3.850	0.217
1.8705	-3.850	0.163
1.871	-3.850	0.115
1.8715	-3.850	0.067
1.872	-3.850	0.006
1.8725	-3.850	-0.036
1.873	-3.850	-0.096
1.8735	-3.850	-0.177
1.874	-3.850	-0.240
1.8745	-3.850	-0.264
1.875	-3.850	-0.302
1.8755	-3.850	-0.309
1.876	-3.850	-0.278
1.8765	-3.850	-0.276
1.877	-3.850	-0.279
1.8775	-3.850	-0.279
1.878	-3.850	-0.260
1.8785	-3.850	-0.224
1.879	-3.850	-0.190
1.8795	-3.850	-0.138
1.88	-3.850	-0.087
1.8805	-3.850	-0.046
1.881	-3.850	0.013
1.8815	-3.850	0.066
1.882	-3.850	0.121
1.8825	-3.850	0.179
1.883	-3.850	0.219
1.8835	-3.850	0.254
1.884	-3.850	0.272
1.8845	-3.850	0.257
1.885	-3.850	0.250
1.8855	-3.850	0.246
1.886	-3.850	0.226
1.8865	-3.850	0.213
1.887	-3.850	0.163
1.8875	-3.850	0.109
1.888	-3.850	0.047
1.8885	-3.850	0.012
1.889	-3.850	-0.032
1.8895	-3.850	-0.086
1.89	-3.850	-0.151
1.8905	-3.850	-0.185
1.891	-3.850	-0.229
1.8915	-3.850	-0.265
1.892	-3.850	-0.293
1.8925	-3.850	-0.280
1.893	-3.850	-0.274
1.8935	-3.850	-0.265
1.894	-3.850	-0.276
1.8945	-3.850	-0.272
1.895	-3.850	-0.249
1.8955	-3.850	-0.194
1.896	-3.850	-0.142
1.8965	-3.850	-0.110
1.897	-3.850	-0.053
1.8975	-3.850	-0.013
1.898	-3.850	0.023
1.8985	-3.850	0.073
1.899	-3.850	0.132
1.8995	-3.850	0.170
1.9	-3.850	0.230
1.9005	-3.850	0.274
1.901	-3.850	0.283
1.9015	-3.850	0.279
1.902	-3.850	0.268
1.9025	-3.850	0.265
1.903	-3.850	0.255
1.9035	-3.850	0.215
1.904	-3.850	0.160
1.9045	-3.850	0.101
1.905	-3.850	0.052
1.9055	-3.850	0.007
1.906	-3.850	-0.048
1.9065	-3.850	-0.127
1.907	-3.850	-0.194
1.9075	-3.850	-0.248
1.908	-3.850	-0.272
1.9085	-3.850	-0.290
1.909	-3.850	-0.275
1.9095	-3.850	-0.245
1.91	-3.850	-0.227
1.9105	-3.850	-0.233
1.911	-3.850	-0.247
1.9115	-3.850	-0.246
1.912	-3.850	-0.216
1.9125	-3.850	-0.178
1.913	-3.850	-0.126
1.9135	-3.850	-0.083
1.914	-3.850	-0.047
1.9145	-3.850	0.009
1.915	-3.850	0.047
1.9155	-3.850	0.096
1.916	-3.850	0.134
1.9165	-3.850	0.192
1.917	-3.850	0.227
1.9175	-3.850	0.257
1.918	-3.850	0.257
1.9185	-3.850	0.243
1.919	-3.850	0.238
1.9195	-3.850	0.237
1.92	-3.850	0.217
1.9205	-3.850	0.151
1.921	-3.850	0.115
1.9215	-3.850	0.064
1.922	-3.850	0.019
1.9225	-3.850	-0.034
1.923	-3.850	-0.097
1.9235	-3.850	-0.149
1.924	-3.850	-0.185
1.9245	-3.850	-0.243
1.925	-3.850	-0.269
1.9255	-3.850	-0.266
1.926	-3.850	-0.258
1.9265	-3.850	-0.271
1.927	-3.850	-0.277
1.9275	-3.850	-0.280
1.928	-3.850	-0.266
1.9285	-3.850	-0.238
1.929	-3.850	-0.190
1.9295	-3.850	-0.146
1.93	-3.850	-0.111
1.9305	-3.850	-0.065
1.931	-3.850	-0.007
1.9315	-3.850	0.048
1.932	-3.850	0.100
1.9325	-3.850	0.163
1.933	-3.850	0.219
1.9335	-3.850	0.265
1.934	-3.850	0.291
1.9345	-3.850	0.282
1.935	-3.850	0.271
1.9355	-3.850	0.271
1.936	-3.850	0.264
1.9365	-3.850	0.243
1.937	-3.850	0.188
1.9375	-3.850	0.110
1.938	-3.850	0.043
1.9385	-3.850	-0.004
1.939	-3.850	-0.051
1.9395	-3.850	-0.102
1.94	-3.850	-0.155
1.9405	-3.850	-0.196
1.941	-3.850	-0.240
1.9415	-3.850	-0.285
1.942	-3.850	-0.321
1.9425	-3.850	-0.318
1.943	-3.850	-0.314
1.9435	-3.850	-0.310
1.944	-3.850	-0.299
1.9445	-3.850	-0.277
1.945	-3.850	-0.259
1.9455	-3.850	-0.212
1.946	-3.850	-0.161
1.9465	-3.850	-0.111
1.947	-3.850	-0.077
1.9475	-3.850	-0.019
1.948	-3.850	0.021
1.9485	-3.850	0.052
1.949	-3.850	0.110
1.9495	-3.850	0.168
1.95	-3.850	0.216
1.9505	-3.850	0.240
1.951	-3.850	0.255
1.9515	-3.850	0.264
1.952	-3.850	0.268
1.9525	-3.850	0.266
1.953	-3.850	0.247
1.9535	-3.850	0.196
1.954	-3.850	0.132
1.9545	-3.850	0.079
1.955	-3.850	0.041
1.9555	-3.850	-0.013
1.956	-3.850	-0.058
1.9565	-3.850	-0.124
1.957	-3.850	-0.180
1.9575	-3.850	-0.220
1.958	-3.850	-0.260
1.9585	-3.850	-0.293
1.959	-3.850	-0.288
1.9595	-3.850	-0.272
1.96	-3.850	-0.284
1.9605	-3.850	-0.297
1.961	-3.850	-0.310
1.9615	-3.850	-0.289
1.962	-3.850	-0.245
1.9625	-3.850	-0.199
1.963	-3.850	-0.136
1.9635	-3.850	-0.083
1.964	-3.850	-0.027
1.9645	-3.850	0.037
1.965	-3.850	0.094
1.9655	-3.850	0.140
1.966	-3.850	0.189
1.9665	-3.850	0.232
1.967	-3.850	0.275
1.9675	-3.850	0.297
1.968	-3.850	0.297
1.9685	-3.850	0.281
1.969	-3.850	0.275
1.9695	-3.850	0.231
1.97	-3.850	0.203
1.9705	-3.850	0.159
1.971	-3.850	0.094
1.9715	-3.850	0.034
1.972	-3.850	-0.022
1.9725	-3.850	-0.059
1.973	-3.850	-0.111
1.9735	-3.850	-0.165
1.974	-3.850	-0.215
1.9745	-3.850	-0.244
1.975	-3.850	-0.287
1.9755	-3.850	-0.287
1.976	-3.850	-0.284
1.9765	-3.850	-0.293
1.977	-3.850	-0.294
1.9775	-3.850	-0.287
1.978	-3.850	-0.282
1.9785	-3.850	-0.255
1.979	-3.850	-0.203
1.9795	-3.850	-0.148
1.98	-3.850	-0.111
1.9805	-3.850	-0.050
1.981	-3.850	0.011
1.9815	-3.850	0.051
1.982	-3.850	0.083
1.9825	-3.850	0.135
1.983	-3.850	0.191
1.9835	-3.850	0.227
1.984	-3.850	0.264
1.9845	-3.850	0.253
1.985	-3.850	0.247
1.9855	-3.850	0.243
1.986	-3.850	0.242
1.9865	-3.850	0.230
1.987	-3.850	0.185
1.9875	-3.850	0.121
1.988	-3.850	0.065
1.9885	-3.850	0.018
1.989	-3.850	-0.049
1.9895	-3.850	-0.090
1.99	-3.850	-0.155
1.9905	-3.850	-0.195
1.991	-3.850	-0.233
1.9915	-3.850	-0.280
1.992	-3.850	-0.292
1.9925	-3.850	-0.262
1.993	-3.850	-0.253
1.9935	-3.850	-0.262
1.994	-3.850	-0.272
1.9945	-3.850	-0.269
1.995	-3.850	-0.246
1.9955	-3.850	-0.210
1.996	-3.850	-0.153
1.9965	-3.850	-0.100
1.997	-3.850	-0.056
1.9975	-3.850	-0.013
1.998	-3.850	0.031
1.9985	-3.850	0.061
1.999	-3.850	0.110
1.9995	-3.850	0.155
2.0	-3.850	0.228
2.0005	-3.850	0.248
2.001	-3.850	0.260
2.0015	-3.850	0.260
2.002	-3.850	0.267
2.0025	-3.850	0.266
2.003	-3.850	0.256
2.0035	-3.850	0.219
2.004	-3.850	0.167
2.0045	-3.850	0.104
2.005	-3.850	0.061
2.0055	-3.850	0.009
2.006	-3.850	-0.052
2.0065	-3.850	-0.116
2.007	-3.850	-0.175
2.0075	-3.850	-0.220
2.008	-3.850	-0.265
2.0085	-3.850	-0.296
2.009	-3.850	-0.285
2.0095	-3.850	-0.290
2.01	-3.850	-0.295
2.0105	-3.850	-0.300
2.011	-3.850	-0.292
2.0115	-3.850	-0.279
2.012	-3.850	-0.213
2.0125	-3.850	-0.166
2.013	-3.850	-0.103
2.0135	-3.850	-0.068
2.014	-3.850	-0.017
2.0145	-3.850	0.029
2.015	-3.850	0.072
2.0155	-3.850	0.124
2.016	-3.850	0.184
2.0165	-3.850	0.238
2.017	-3.850	0.255
2.0175	-3.850	0.284
2.018	-3.850	0.279
2.0185	-3.850	0.264
2.019	-3.850	0.245
2.0195	-3.850	0.234
2.02	-3.850	0.187
2.0205	-3.850	0.138
2.021	-3.850	0.072
2.0215	-3.850	0.047
2.022	-3.850	0.008
2.0225	-3.850	-0.038
2.023	-3.850	-0.113
2.0235	-3.850	-0.168
2.024	-3.850	-0.226
2.0245	-3.850	-0.259
2.025	-3.850	-0.294
2.0255	-3.850	-0.298
2.026	-3.850	-0.270
2.0265	-3.850	-0.258
2.027	-3.850	-0.249
2.0275	-3.850	-0.248
2.028	-3.850	-0.234
2.0285	-3.850	-0.216
2.029	-3.850	-0.180
2.0295	-3.850	-0.107
2.03	-3.850	-0.061
2.0305	-3.850	-0.011
2.031	-3.850	0.046
2.0315	-3.850	0.070
2.032	-3.850	0.089
2.0325	-3.850	0.126
2.033	-3.850	0.162
2.0335	-3.850	0.210
2.034	-3.850	0.230
2.0345	-3.850	0.239
2.035	-3.850	0.237
2.0355	-3.850	0.231
2.036	-3.850	0.229
2.0365	-3.850	0.212
2.037	-3.850	0.156
2.0375	-3.850	0.098
2.038	-3.850	0.050
2.0385	-3.850	0.002
2.039	-3.850	-0.044
2.0395	-3.850	-0.111
2.04	-3.850	-0.164
2.0405	-3.850	-0.216
2.041	-3.850	-0.253
2.0415	-3.850	-0.291
2.042	-3.850	-0.310
2.0425	-3.850	-0.311
2.043	-3.850	-0.303
2.0435	-3.850	-0.301
2.044	-3.850	-0.300
2.0445	-3.850	-0.291
2.045	-3.850	-0.266
2.0455	-3.850	-0.200
2.046	-3.850	-0.136
2.0465	-3.850	-0.076
2.047	-3.850	-0.032
2.0475	-3.850	0.019
2.048	-3.850	0.040
2.0485	-3.850	0.078
2.049	-3.850	0.123
2.0495	-3.850	0.165
2.05	-3.850	0.204
2.0505	-3.850	0.247
2.051	-3.850	0.264
2.0515	-3.850	0.274
2.052	-3.850	0.269
2.0525	-3.850	0.268
2.053	-3.850	0.243
2.0535	-3.850	0.201
2.054	-3.850	0.170
2.0545	-3.850	0.122
2.055	-3.850	0.068
2.0555	-3.850	0.020
2.056	-3.850	-0.033
2.0565	-3.850	-0.110
2.057	-3.850	-0.155
2.0575	-3.850	-0.208
2.058	-3.850	-0.268
2.0585	-3.850	-0.305
2.059	-3.850	-0.306
2.0595	-3.850	-0.298
2.06	-3.850	-0.285
2.0605	-3.850	-0.289
2.061	-3.850	-0.293
2.0615	-3.850	-0.285
2.062	-3.850	-0.246
2.0625	-3.850	-0.193
2.063	-3.850	-0.140
2.0635	-3.850	-0.095
2.064	-3.850	-0.042
2.0645	-3.850	0.010
2.065	-3.850	0.052
2.0655	-3.850	0.090
2.066	-3.850	0.149
2.0665	-3.850	0.198
2.067	-3.850	0.243
2.0675	-3.850	0.269
2.068	-3.850	0.269
2.0685	-3.850	0.250
2.069	-3.850	0.243
2.0695	-3.850	0.226
2.07	-3.850	0.197
2.0705	-3.850	0.149
2.071	-3.850	0.111
2.0715	-3.850	0.054
2.072	-3.850	0.014
2.0725	-3.850	-0.024
2.073	-3.850	-0.079
2.0735	-3.850	-0.121
2.074	-3.850	-0.185
2.0745	-3.850	-0.235
2.075	-3.850	-0.274
2.0755	-3.850	-0.280
2.076	-3.850	-0.299
2.0765	-3.850	-0.295
2.077	-3.850	-0.299
2.0775	-3.850	-0.291
2.078	-3.850	-0.275
2.0785	-3.850	-0.239
2.079	-3.850	-0.186
2.0795	-3.850	-0.132
2.08	-3.850	-0.081
2.0805	-3.850	-0.048
2.081	-3.850	-0.002
2.0815	-3.850	0.048
2.082	-3.850	0.110
2.0825	-3.850	0.160
2.083	-3.850	0.231
2.0835	-3.850	0.270
2.084	-3.850	0.292
2.0845	-3.850	0.282
2.085	-3.850	0.265
2.0855	-3.850	0.253
2.086	-3.850	0.233
2.0865	-3.850	0.209
2.087	-3.850	0.172
2.0875	-3.850	0.103
2.088	-3.850	0.056
2.0885	-3.850	0.019
2.089	-3.850	-0.031
2.0895	-3.850	-0.082
2.09	-3.850	-0.157
2.0905	-3.850	-0.203
2.091	-3.850	-0.257
2.0915	-3.850	-0.301
2.092	-3.850	-0.322
2.0925	-3.850	-0.321
2.093	-3.850	-0.320
2.0935	-3.850	-0.312
2.094	-3.850	-0.312
2.0945	-3.850	-0.297
2.095	-3.850	-0.256
2.0955	-3.850	-0.198
2.096	-3.850	-0.134
2.0965	-3.850	-0.082
2.097	-3.850	-0.038
2.0975	-3.850	0.012
2.098	-3.850	0.060
2.0985	-3.850	0.080
2.099	-3.850	0.137
2.0995	-3.850	0.170
2.1	-3.850	0.213
2.1005	-3.850	0.240
2.101	-3.850	0.253
2.1015	-3.850	0.264
2.102	-3.850	0.265
2.1025	-3.850	0.268
2.103	-3.850	0.241
2.1035	-3.850	0.202
2.104	-3.850	0.131
2.1045	-3.850	0.057
2.105	-3.850	0.006
2.1055	-3.848	-0.052
2.106	-3.848	-0.104
2.1065	-3.848	-0.153
2.107	-3.848	-0.200
2.1075	-3.848	-0.234
2.108	-3.848	-0.263
2.1085	-3.848	-0.291
2.109	-3.848	-0.293
2.1095	-3.848	-0.312
2.11	-3.848	-0.304
2.1105	-3.848	-0.286
2.111	-3.848	-0.255
2.1115	-3.848	-0.228
2.112	-3.848	-0.200
2.1125	-3.848	-0.159
2.113	-3.848	-0.109
2.1135	-3.848	-0.075
2.114	-3.848	-0.016
2.1145	-3.848	0.033
2.115	-3.848	0.088
2.1155	-3.848	0.117
2.116	-3.848	0.169
2.1165	-3.848	0.204
2.117	-3.848	0.239
2.1175	-3.848	0.273
2.118	-3.848	0.275
2.1185	-3.848	0.291
2.119	-3.848	0.288
2.1195	-3.848	0.300
2.12	-3.848	0.266
2.1205	-3.848	0.208
2.121	-3.848	0.131
2.1215	-3.848	0.086
2.122	-3.848	0.035
2.1225	-3.848	-0.020
2.123	-3.848	-0.080
2.1235	-3.848	-0.143
2.124	-3.848	-0.199
2.1245	-3.848	-0.242
2.125	-3.848	-0.279
2.1255	-3.848	-0.302
2.126	-3.848	-0.312
2.1265	-3.848	-0.305
2.127	-3.848	-0.286
2.1275	-3.848	-0.271
2.128	-3.848	-0.254
2.1285	-3.848	-0.223
2.129	-3.848	-0.186
2.1295	-3.848	-0.143
2.13	-3.848	-0.096
2.1305	-3.848	-0.029
2.131	-3.848	0.025
2.1315	-3.848	0.073
2.132	-3.848	0.114
2.1325	-3.848	0.185
2.133	-3.848	0.206
2.1335	-3.848	0.246
2.134	-3.848	0.260
2.1345	-3.848	0.274
2.135	-3.848	0.259
2.1355	-3.848	0.254
2.136	-3.848	0.241
2.1365	-3.848	0.222
2.137	-3.848	0.178
2.1375	-3.848	0.123
2.138	-3.848	0.058
2.1385	-3.848	0.010
2.139	-3.848	-0.039
2.1395	-3.848	-0.107
2.14	-3.848	-0.158
2.1405	-3.848	-0.210
2.141	-3.848	-0.250
2.1415	-3.848	-0.283
2.142	-3.848	-0.312
2.1425	-3.848	-0.315
2.143	-3.848	-0.312
2.1435	-3.848	-0.309
2.144	-3.848	-0.289
2.1445	-3.848	-0.271
2.145	-3.848	-0.220
2.1455	-3.848	-0.163
2.146	-3.848	-0.103
2.1465	-3.848	-0.067
2.147	-3.848	-0.037
2.1475	-3.848	0.013
2.148	-3.848	0.046
2.1485	-3.848	0.087
2.149	-3.848	0.119
2.1495	-3.848	0.154
2.15	-3.848	0.211
2.1505	-3.848	0.235
2.151	-3.848	0.247
2.1515	-3.848	0.235
2.152	-3.848	0.218
2.1525	-3.848	0.216
2.153	-3.848	0.210
2.1535	-3.848	0.178
2.154	-3.848	0.147
2.1545	-3.848	0.090
2.155	-3.848	0.056
2.1555	-3.848	-0.019
2.156	-3.848	-0.073
2.1565	-3.848	-0.148
2.157	-3.848	-0.180
2.1575	-3.848	-0.223
2.158	-3.848	-0.252
2.1585	-3.848	-0.295
2.159	-3.848	-0.315
2.1595	-3.848	-0.329
2.16	-3.848	-0.326
2.1605	-3.848	-0.318
2.161	-3.848	-0.300
2.1615	-3.848	-0.276
2.162	-3.848	-0.234
2.1625	-3.848	-0.182
2.163	-3.848	-0.146
2.1635	-3.848	-0.090
2.164	-3.848	-0.039
2.1645	-3.848	0.011
2.165	-3.848	0.066
2.1655	-3.848	0.118
2.166	-3.848	0.169
2.1665	-3.848	0.209
2.167	-3.848	0.235
2.1675	-3.848	0.243
2.168	-3.848	0.241
2.1685	-3.848	0.252
2.169	-3.848	0.266
2.1695	-3.848	0.247
2.17	-3.848	0.224
2.1705	-3.848	0.165
2.171	-3.848	0.112
2.1715	-3.848	0.052
2.172	-3.848	-0.012
2.1725	-3.848	-0.057
2.173	-3.848	-0.117
2.1735	-3.848	-0.171
2.174	-3.848	-0.225
2.1745	-3.848	-0.285
2.175	-3.848	-0.324
2.1755	-3.848	-0.321
2.176	-3.848	-0.324
2.1765	-3.848	-0.322
2.177	-3.848	-0.318
2.1775	-3.848	-0.298
2.178	-3.848	-0.276
2.1785	-3.848	-0.230
2.179	-3.848	-0.164
2.1795	-3.848	-0.086
2.18	-3.848	-0.052
2.1805	-3.848	-0.019
2.181	-3.848	0.023
2.1815	-3.848	0.051
2.182	-3.848	0.086
2.1825	-3.848	0.147
2.183	-3.848	0.199
2.1835	-3.848	0.248
2.184	-3.848	0.269
2.1845	-3.848	0.265
2.185	-3.848	0.241
2.1855	-3.848	0.239
2.186	-3.848	0.272
2.1865	-3.847	0.257
2.187	-3.847	0.206
2.1875	-3.847	0.149
2.188	-3.847	0.093
2.1885	-3.847	0.045
2.189	-3.847	0.008
2.1895	-3.847	-0.045
2.19	-3.847	-0.116
2.1905	-3.847	-0.146
2.191	-3.847	-0.207
2.1915	-3.847	-0.240
2.192	-3.847	-0.269
2.1925	-3.847	-0.278
2.193	-3.847	-0.277
2.1935	-3.847	-0.271
2.194	-3.847	-0.272
2.1945	-3.847	-0.253
2.195	-3.847	-0.230
2.1955	-3.847	-0.173
2.196	-3.847	-0.103
2.1965	-3.847	-0.061
2.197	-3.847	-0.026
2.1975	-3.847	0.009
2.198	-3.847	0.043
2.1985	-3.847	0.074
2.199	-3.847	0.135
2.1995	-3.847	0.184
2.2	-3.847	0.232
2.2005	-3.847	0.260
2.201	-3.847	0.291
2.2015	-3.847	0.306
2.202	-3.847	0.315
2.2025	-3.847	0.297
2.203	-3.847	0.275
2.2035	-3.847	0.232
2.204	-3.847	0.169
2.2045	-3.847	0.109
2.205	-3.847	0.055
2.2055	-3.847	-0.012
2.206	-3.847	-0.084
2.2065	-3.847	-0.159
2.207	-3.847	-0.212
2.2075	-3.847	-0.251
2.208	-3.847	-0.294
2.2085	-3.847	-0.311
2.209	-3.847	-0.312
2.2095	-3.847	-0.300
2.21	-3.847	-0.310
2.2105	-3.847	-0.307
2.211	-3.847	-0.304
2.2115	-3.847	-0.296
2.212	-3.847	-0.243
2.2125	-3.847	-0.154
2.213	-3.847	-0.089
2.2135	-3.847	-0.047
2.214	-3.847	-0.001
2.2145	-3.847	0.047
2.215	-3.847	0.103
2.2155	-3.847	0.146
2.216	-3.847	0.197
2.2165	-3.847	0.228
2.217	-3.847	0.265
2.2175	-3.847	0.279
2.218	-3.847	0.273
2.2185	-3.847	0.258
2.219	-3.847	0.258
2.2195	-3.847	0.250
2.22	-3.847	0.231
2.2205	-3.847	0.175
2.221	-3.847	0.102
2.2215	-3.847	0.029
2.222	-3.847	-0.035
2.2225	-3.847	-0.090
2.223	-3.847	-0.181
2.2235	-3.847	-0.245
2.224	-3.847	-0.279
2.2245	-3.847	-0.306
2.225	-3.847	-0.337
2.2255	-3.847	-0.344
2.226	-3.847	-0.328
2.2265	-3.847	-0.302
2.227	-3.847	-0.292
2.2275	-3.847	-0.292
2.228	-3.847	-0.275
2.2285	-3.847	-0.249
2.229	-3.847	-0.202
2.2295	-3.847	-0.146
2.23	-3.847	-0.090
2.2305	-3.847	-0.043
2.231	-3.845	0.003
2.2315	-3.845	0.044
2.232	-3.845	0.088
2.2325	-3.845	0.145
2.233	-3.845	0.199
2.2335	-3.845	0.232
2.234	-3.845	0.235
2.2345	-3.845	0.236
2.235	-3.845	0.190
2.2355	-3.845	0.168
2.236	-3.845	0.150
2.2365	-3.845	0.155
2.237	-3.845	0.123
2.2375	-3.845	0.087
2.238	-3.845	0.053
2.2385	-3.845	0.009
2.239	-3.845	-0.053
2.2395	-3.845	-0.132
2.24	-3.845	-0.189
2.2405	-3.845	-0.223
2.241	-3.845	-0.230
2.2415	-3.845	-0.268
2.242	-3.845	-0.297
2.2425	-3.845	-0.291
2.243	-3.845	-0.279
2.2435	-3.845	-0.280
2.244	-3.845	-0.283
2.2445	-3.845	-0.287
2.245	-3.845	-0.243
2.2455	-3.845	-0.185
2.246	-3.845	-0.119
2.2465	-3.845	-0.083
2.247	-3.845	-0.027
2.2475	-3.845	0.004
2.248	-3.845	0.035
2.2485	-3.845	0.068
2.249	-3.845	0.123
2.2495	-3.845	0.173
2.25	-3.845	0.218
2.2505	-3.845	0.258
2.251	-3.845	0.268
2.2515	-3.845	0.265
2.252	-3.845	0.272
2.2525	-3.845	0.284
2.253	-3.845	0.267
2.2535	-3.845	0.230
2.254	-3.845	0.172
2.2545	-3.845	0.118
2.255	-3.845	0.070
2.2555	-3.845	0.025
2.256	-3.845	-0.017
2.2565	-3.845	-0.087
2.257	-3.845	-0.138
2.2575	-3.845	-0.176
2.258	-3.845	-0.228
2.2585	-3.845	-0.282
2.259	-3.845	-0.301
2.2595	-3.845	-0.297
2.26	-3.845	-0.281
2.2605	-3.845	-0.278
2.261	-3.845	-0.282
2.2615	-3.845	-0.270
2.262	-3.845	-0.229
2.2625	-3.844	-0.176
2.263	-3.844	-0.121
2.2635	-3.844	-0.091
2.264	-3.844	-0.056
2.2645	-3.844	-0.008
2.265	-3.844	0.014
2.2655	-3.844	0.057
2.266	-3.844	0.106
2.2665	-3.844	0.162
2.267	-3.844	0.197
2.2675	-3.844	0.239
2.268	-3.844	0.251
2.2685	-3.844	0.252
2.269	-3.844	0.243
2.2695	-3.844	0.245
2.27	-3.844	0.212
2.2705	-3.844	0.149
2.271	-3.844	0.099
2.2715	-3.844	0.064
2.272	-3.844	0.029
2.2725	-3.844	-0.022
2.273	-3.844	-0.083
2.2735	-3.844	-0.148
2.274	-3.844	-0.186
2.2745	-3.844	-0.201
2.275	-3.844	-0.223
2.2755	-3.844	-0.218
2.276	-3.844	-0.218
2.2765	-3.844	-0.223
2.277	-3.844	-0.202
2.2775	-3.844	-0.175
2.278	-3.844	-0.152
2.2785	-3.844	-0.100
2.279	-3.844	-0.022
2.2795	-3.844	0.039
2.28	-3.844	0.084
2.2805	-3.844	0.135
2.281	-3.844	0.158
2.2815	-3.844	0.188
2.282	-3.844	0.219
2.2825	-3.844	0.255
2.283	-3.844	0.301
2.2835	-3.844	0.318
2.284	-3.844	0.287
2.2845	-3.844	0.256
2.285	-3.844	0.239
2.2855	-3.844	0.204
2.286	-3.844	0.187
2.2865	-3.844	0.157
2.287	-3.842	0.118
2.2875	-3.842	0.056
2.288	-3.842	-0.021
2.2885	-3.842	-0.081
2.289	-3.842	-0.128
2.2895	-3.842	-0.216
2.29	-3.842	-0.262
2.2905	-3.842	-0.306
2.291	-3.842	-0.345
2.2915	-3.842	-0.376
2.292	-3.842	-0.380
2.2925	-3.842	-0.367
2.293	-3.842	-0.366
2.2935	-3.842	-0.372
2.294	-3.842	-0.386
2.2945	-3.842	-0.369
2.295	-3.842	-0.341
2.2955	-3.842	-0.266
2.296	-3.842	-0.209
2.2965	-3.842	-0.160
2.297	-3.842	-0.114
2.2975	-3.842	-0.050
2.298	-3.842	0.005
2.2985	-3.842	0.044
2.299	-3.842	0.096
2.2995	-3.842	0.163
2.3	-3.842	0.216
2.3005	-3.842	0.244
2.301	-3.842	0.267
2.3015	-3.842	0.272
2.302	-3.842	0.292
2.3025	-3.842	0.300
2.303	-3.842	0.273
2.3035	-3.842	0.219
2.304	-3.842	0.180
2.3045	-3.842	0.132
2.305	-3.842	0.100
2.3055	-3.842	0.053
2.306	-3.842	-0.016
2.3065	-3.842	-0.091
2.307	-3.842	-0.165
2.3075	-3.842	-0.220
2.308	-3.841	-0.295
2.3085	-3.841	-0.333
2.309	-3.841	-0.322
2.3095	-3.841	-0.300
2.31	-3.841	-0.296
2.3105	-3.841	-0.276
2.311	-3.841	-0.247
2.3115	-3.841	-0.215
2.312	-3.841	-0.187
2.3125	-3.841	-0.138
2.313	-3.841	-0.098
2.3135	-3.841	-0.043
2.314	-3.841	-0.004
2.3145	-3.841	0.049
2.315	-3.841	0.070
2.3155	-3.841	0.100
2.316	-3.841	0.140
2.3165	-3.841	0.193
2.317	-3.841	0.235
2.3175	-3.841	0.236
2.318	-3.841	0.219
2.3185	-3.841	0.212
2.319	-3.841	0.220
2.3195	-3.841	0.205
2.32	-3.841	0.173
2.3205	-3.841	0.123
2.321	-3.841	0.062
2.3215	-3.841	0.016
2.322	-3.841	-0.043
2.3225	-3.841	-0.088
2.323	-3.841	-0.158
2.3235	-3.841	-0.205
2.324	-3.841	-0.258
2.3245	-3.841	-0.295
2.325	-3.841	-0.323
2.3255	-3.841	-0.295
2.326	-3.839	-0.290
2.3265	-3.839	-0.286
2.327	-3.839	-0.281
2.3275	-3.839	-0.282
2.328	-3.839	-0.258
2.3285	-3.839	-0.226
2.329	-3.839	-0.176
2.3295	-3.839	-0.114
2.33	-3.839	-0.045
2.3305	-3.839	0.005
2.331	-3.839	0.058
2.3315	-3.839	0.107
2.332	-3.839	0.160
2.3325	-3.839	0.217
2.333	-3.839	0.265
2.3335	-3.839	0.301
2.334	-3.839	0.325
2.3345	-3.839	0.317
2.335	-3.839	0.318
2.3355	-3.839	0.303
2.336	-3.839	0.283
2.3365	-3.839	0.250
2.337	-3.839	0.191
2.3375	-3.839	0.147
2.338	-3.839	0.091
2.3385	-3.839	0.035
2.339	-3.839	-0.010
2.3395	-3.839	-0.075
2.34	-3.839	-0.147
2.3405	-3.839	-0.205
2.341	-3.839	-0.253
2.3415	-3.839	-0.303
2.342	-3.838	-0.308
2.3425	-3.838	-0.302
2.343	-3.838	-0.323
2.3435	-3.838	-0.324
2.344	-3.838	-0.319
2.3445	-3.838	-0.310
2.345	-3.838	-0.277
2.3455	-3.838	-0.230
2.346	-3.838	-0.173
2.3465	-3.838	-0.127
2.347	-3.838	-0.076
2.3475	-3.838	-0.025
2.348	-3.838	0.046
2.3485	-3.838	0.096
2.349	-3.838	0.157
2.3495	-3.838	0.214
2.35	-3.838	0.257
2.3505	-3.838	0.277
2.351	-3.838	0.278
2.3515	-3.838	0.285
2.352	-3.838	0.294
2.3525	-3.838	0.289
2.353	-3.838	0.278
2.3535	-3.838	0.249
2.354	-3.838	0.187
2.3545	-3.838	0.131
2.355	-3.838	0.068
2.3555	-3.838	0.005
2.356	-3.838	-0.043
2.3565	-3.838	-0.090
2.357	-3.836	-0.127
2.3575	-3.836	-0.176
2.358	-3.836	-0.218
2.3585	-3.836	-0.249
2.359	-3.836	-0.252
2.3595	-3.836	-0.256
2.36	-3.836	-0.259
2.3605	-3.836	-0.281
2.361	-3.836	-0.272
2.3615	-3.836	-0.272
2.362	-3.836	-0.258
2.3625	-3.836	-0.206
2.363	-3.836	-0.152
2.3635	-3.836	-0.109
2.364	-3.836	-0.059
2.3645	-3.836	-0.022
2.365	-3.836	0.002
2.3655	-3.836	0.063
2.366	-3.836	0.106
2.3665	-3.836	0.170
2.367	-3.836	0.213
2.3675	-3.836	0.255
2.368	-3.836	0.267
2.3685	-3.836	0.273
2.369	-3.836	0.275
2.3695	-3.836	0.248
2.37	-3.836	0.204
2.3705	-3.834	0.143
2.371	-3.834	0.076
2.3715	-3.834	0.037
2.372	-3.834	-0.002
2.3725	-3.834	-0.036
2.373	-3.834	-0.089
2.3735	-3.834	-0.156
2.374	-3.834	-0.196
2.3745	-3.834	-0.242
2.375	-3.834	-0.275
2.3755	-3.834	-0.276
2.376	-3.834	-0.272
2.3765	-3.834	-0.282
2.377	-3.834	-0.264
2.3775	-3.834	-0.257
2.378	-3.834	-0.246
2.3785	-3.834	-0.209
2.379	-3.834	-0.158
2.3795	-3.834	-0.091
2.38	-3.834	-0.026
2.3805	-3.834	0.030
2.381	-3.834	0.082
2.3815	-3.834	0.123
2.382	-3.834	0.166
2.3825	-3.834	0.237
2.383	-3.834	0.309
2.3835	-3.833	0.355
2.384	-3.833	0.388
2.3845	-3.833	0.399
2.385	-3.833	0.370
2.3855	-3.833	0.349
2.386	-3.833	0.332
2.3865	-3.833	0.318
2.387	-3.833	0.259
2.3875	-3.833	0.142
2.388	-3.833	0.052
2.3885	-3.833	-0.022
2.389	-3.833	-0.110
2.3895	-3.833	-0.195
2.39	-3.833	-0.261
2.3905	-3.833	-0.286
2.391	-3.833	-0.279
2.3915	-3.833	-0.303
2.392	-3.833	-0.331
2.3925	-3.833	-0.329
2.393	-3.833	-0.325
2.3935	-3.833	-0.356
2.394	-3.833	-0.380
2.3945	-3.833	-0.372
2.395	-3.833	-0.322
2.3955	-3.831	-0.260
2.396	-3.831	-0.196
2.3965	-3.831	-0.149
2.397	-3.831	-0.101
2.3975	-3.831	-0.048
2.398	-3.831	0.004
2.3985	-3.831	0.041
2.399	-3.831	0.091
2.3995	-3.831	0.136
2.4	-3.831	0.201
2.4005	-3.831	0.227
2.401	-3.831	0.223
2.4015	-3.831	0.193
2.402	-3.831	0.190
2.4025	-3.831	0.185
2.403	-3.831	0.187
2.4035	-3.831	0.156
2.404	-3.831	0.109
2.4045	-3.831	0.044
2.405	-3.831	0.013
2.4055	-3.831	-0.030
2.406	-3.831	-0.090
2.4065	-3.830	-0.140
2.407	-3.830	-0.177
2.4075	-3.830	-0.225
2.408	-3.830	-0.268
2.4085	-3.830	-0.295
2.409	-3.830	-0.268
2.4095	-3.830	-0.259
2.41	-3.830	-0.257
2.4105	-3.830	-0.252
2.411	-3.830	-0.259
2.4115	-3.830	-0.256
2.412	-3.830	-0.217
2.4125	-3.830	-0.153
2.413	-3.830	-0.100
2.4135	-3.830	-0.066
2.414	-3.830	-0.021
2.4145	-3.830	0.032
2.415	-3.830	0.079
2.4155	-3.830	0.134
2.416	-3.830	0.191
2.4165	-3.830	0.236
2.417	-3.830	0.261
2.4175	-3.828	0.272
2.418	-3.828	0.230
2.4185	-3.828	0.201
2.419	-3.828	0.213
2.4195	-3.828	0.215
2.42	-3.828	0.174
2.4205	-3.828	0.131
2.421	-3.828	0.067
2.4215	-3.828	0.014
2.422	-3.828	-0.052
2.4225	-3.828	-0.100
2.423	-3.828	-0.173
2.4235	-3.828	-0.220
2.424	-3.828	-0.256
2.4245	-3.828	-0.270
2.425	-3.828	-0.306
2.4255	-3.828	-0.295
2.426	-3.828	-0.308
2.4265	-3.828	-0.317
2.427	-3.828	-0.330
2.4275	-3.827	-0.320
2.428	-3.827	-0.300
2.4285	-3.827	-0.233
2.429	-3.827	-0.170
2.4295	-3.827	-0.120
2.43	-3.827	-0.090
2.4305	-3.827	-0.047
2.431	-3.827	0.008
2.4315	-3.827	0.057
2.432	-3.827	0.085
2.4325	-3.827	0.120
2.433	-3.827	0.188
2.4335	-3.827	0.243
2.434	-3.827	0.277
2.4345	-3.827	0.286
2.435	-3.827	0.279
2.4355	-3.827	0.269
2.436	-3.827	0.270
2.4365	-3.827	0.248
2.437	-3.827	0.211
2.4375	-3.825	0.168
2.438	-3.825	0.114
2.4385	-3.825	0.082
2.439	-3.825	0.017
2.4395	-3.825	-0.057
2.44	-3.825	-0.122
2.4405	-3.825	-0.170
2.441	-3.825	-0.232
2.4415	-3.825	-0.280
2.442	-3.825	-0.317
2.4425	-3.825	-0.322
2.443	-3.825	-0.321
2.4435	-3.825	-0.295
2.444	-3.825	-0.279
2.4445	-3.825	-0.279
2.445	-3.825	-0.261
2.4455	-3.825	-0.223
2.446	-3.825	-0.149
2.4465	-3.823	-0.095
2.447	-3.823	-0.022
2.4475	-3.823	0.044
2.448	-3.823	0.110
2.4485	-3.823	0.135
2.449	-3.823	0.177
2.4495	-3.823	0.200
2.45	-3.823	0.218
2.4505	-3.823	0.231
2.451	-3.823	0.244
2.4515	-3.823	0.235
2.452	-3.823	0.218
2.4525	-3.823	0.227
2.453	-3.823	0.212
2.4535	-3.823	0.186
2.454	-3.823	0.141
2.4545	-3.823	0.077
2.455	-3.823	0.001
2.4555	-3.822	-0.046
2.456	-3.822	-0.121
2.4565	-3.822	-0.164
2.457	-3.822	-0.189
2.4575	-3.822	-0.194
2.458	-3.822	-0.213
2.4585	-3.822	-0.242
2.459	-3.822	-0.218
2.4595	-3.822	-0.194
2.46	-3.822	-0.158
2.4605	-3.822	-0.155
2.461	-3.822	-0.160
2.4615	-3.822	-0.152
2.462	-3.822	-0.112
2.4625	-3.822	-0.039
2.463	-3.822	0.043
2.4635	-3.822	0.097
2.464	-3.820	0.155
2.4645	-3.820	0.202
2.465	-3.820	0.231
2.4655	-3.820	0.280
2.466	-3.820	0.331
2.4665	-3.820	0.390
2.467	-3.820	0.411
2.4675	-3.820	0.417
2.468	-3.820	0.381
2.4685	-3.820	0.352
2.469	-3.820	0.290
2.4695	-3.820	0.293
2.47	-3.820	0.262
2.4705	-3.820	0.193
2.471	-3.820	0.119
2.4715	-3.820	0.070
2.472	-3.820	-0.011
2.4725	-3.819	-0.110
2.473	-3.819	-0.233
2.4735	-3.819	-0.319
2.474	-3.819	-0.367
2.4745	-3.819	-0.412
2.475	-3.819	-0.446
2.4755	-3.819	-0.441
2.476	-3.819	-0.433
2.4765	-3.819	-0.438
2.477	-3.819	-0.438
2.4775	-3.819	-0.473
2.478	-3.819	-0.449
2.4785	-3.819	-0.375
2.479	-3.819	-0.302
2.4795	-3.819	-0.237
2.48	-3.819	-0.185
2.4805	-3.817	-0.128
2.481	-3.817	-0.054
2.4815	-3.817	0.003
2.482	-3.817	0.058
2.4825	-3.817	0.123
2.483	-3.817	0.163
2.4835	-3.817	0.206
2.484	-3.817	0.242
2.4845	-3.817	0.285
2.485	-3.817	0.326
2.4855	-3.817	0.369
2.486	-3.817	0.385
2.4865	-3.817	0.379
2.487	-3.817	0.348
2.4875	-3.817	0.275
2.488	-3.817	0.215
2.4885	-3.816	0.182
2.489	-3.816	0.158
2.4895	-3.816	0.119
2.49	-3.816	0.066
2.4905	-3.816	-0.008
2.491	-3.816	-0.096
2.4915	-3.816	-0.213
2.492	-3.816	-0.281
2.4925	-3.816	-0.293
2.493	-3.816	-0.278
2.4935	-3.816	-0.292
2.494	-3.816	-0.311
2.4945	-3.816	-0.318
2.495	-3.816	-0.337
2.4955	-3.816	-0.314
2.496	-3.814	-0.271
2.4965	-3.814	-0.229
2.497	-3.814	-0.201
2.4975	-3.814	-0.151
2.498	-3.814	-0.124
2.4985	-3.814	-0.085
2.499	-3.814	-0.012
2.4995	-3.814	0.073
2.5	-3.814	0.118
2.5005	-3.814	0.133
2.501	-3.814	0.131
2.5015	-3.814	0.134
2.502	-3.814	0.120
2.5025	-3.814	0.117
2.503	-3.814	0.112
2.5035	-3.813	0.087
2.504	-3.813	0.035
2.5045	-3.813	-0.012
2.505	-3.813	-0.046
2.5055	-3.813	-0.069
2.506	-3.813	-0.118
2.5065	-3.813	-0.182
2.507	-3.813	-0.238
2.5075	-3.813	-0.268
2.508	-3.813	-0.276
2.5085	-3.813	-0.294
2.509	-3.813	-0.248
2.5095	-3.813	-0.217
2.51	-3.813	-0.216
2.5105	-3.811	-0.183
2.511	-3.811	-0.174
2.5115	-3.811	-0.154
2.512	-3.811	-0.120
2.5125	-3.811	-0.077
2.513	-3.811	-0.020
2.5135	-3.811	0.009
2.514	-3.811	0.024
2.5145	-3.811	0.038
2.515	-3.811	0.031
2.5155	-3.811	0.081
2.516	-3.811	0.161
2.5165	-3.811	0.203
2.517	-3.811	0.218
2.5175	-3.809	0.213
2.518	-3.809	0.203
2.5185	-3.809	0.166
2.519	-3.809	0.169
2.5195	-3.809	0.145
2.52	-3.809	0.128
2.5205	-3.809	0.078
2.521	-3.809	0.049
2.5215	-3.809	0.022
2.522	-3.809	-0.024
2.5225	-3.809	-0.068
2.523	-3.809	-0.121
2.5235	-3.809	-0.170
2.524	-3.808	-0.222
2.5245	-3.808	-0.268
2.525	-3.808	-0.304
2.5255	-3.808	-0.292
2.526	-3.808	-0.302
2.5265	-3.808	-0.297
2.527	-3.808	-0.300
2.5275	-3.808	-0.301
2.528	-3.808	-0.287
2.5285	-3.808	-0.236
2.529	-3.808	-0.185
2.5295	-3.808	-0.122
2.53	-3.808	-0.067
2.5305	-3.806	0.002
2.531	-3.806	0.054
2.5315	-3.806	0.091
2.532	-3.806	0.134
2.5325	-3.806	0.196
2.533	-3.806	0.275
2.5335	-3.806	0.333
2.534	-3.806	0.382
2.5345	-3.806	0.370
2.535	-3.806	0.345
2.5355	-3.806	0.327
2.536	-3.806	0.338
2.5365	-3.806	0.305
2.537	-3.805	0.253
2.5375	-3.805	0.166
2.538	-3.805	0.099
2.5385	-3.805	0.043
2.539	-3.805	-0.021
2.5395	-3.805	-0.109
2.54	-3.805	-0.192
2.5405	-3.805	-0.266
2.541	-3.805	-0.313
2.5415	-3.805	-0.351
2.542	-3.805	-0.362
2.5425	-3.805	-0.373
2.543	-3.805	-0.378
2.5435	-3.803	-0.386
2.544	-3.803	-0.359
2.5445	-3.803	-0.322
2.545	-3.803	-0.273
2.5455	-3.803	-0.226
2.546	-3.803	-0.163
2.5465	-3.803	-0.115
2.547	-3.803	-0.064
2.5475	-3.803	-0.036
2.548	-3.803	0.007
2.5485	-3.803	0.049
2.549	-3.803	0.113
2.5495	-3.802	0.161
2.55	-3.802	0.209
2.5505	-3.802	0.210
2.551	-3.802	0.212
2.5515	-3.802	0.226
2.552	-3.802	0.246
2.5525	-3.802	0.257
2.553	-3.802	0.252
2.5535	-3.802	0.229
2.554	-3.802	0.193
2.5545	-3.802	0.153
2.555	-3.802	0.114
2.5555	-3.800	0.071
2.556	-3.800	0.007
2.5565	-3.800	-0.041
2.557	-3.800	-0.106
2.5575	-3.800	-0.152
2.558	-3.800	-0.201
2.5585	-3.800	-0.214
2.559	-3.800	-0.221
2.5595	-3.800	-0.243
2.56	-3.800	-0.260
2.5605	-3.800	-0.247
2.561	-3.798	-0.240
2.5615	-3.798	-0.198
2.562	-3.798	-0.133
2.5625	-3.798	-0.090
2.563	-3.798	-0.054
2.5635	-3.798	-0.014
2.564	-3.798	0.021
2.5645	-3.798	0.052
2.565	-3.798	0.091
2.5655	-3.798	0.119
2.566	-3.798	0.153
2.5665	-3.798	0.209
2.567	-3.797	0.239
2.5675	-3.797	0.273
2.568	-3.797	0.264
2.5685	-3.797	0.230
2.569	-3.797	0.188
2.5695	-3.797	0.133
2.57	-3.797	0.078
2.5705	-3.797	0.053
2.571	-3.797	0.016
2.5715	-3.797	-0.029
2.572	-3.797	-0.081
2.5725	-3.795	-0.137
2.573	-3.795	-0.183
2.5735	-3.795	-0.214
2.574	-3.795	-0.241
2.5745	-3.795	-0.282
2.575	-3.795	-0.311
2.5755	-3.795	-0.316
2.576	-3.795	-0.304
2.5765	-3.795	-0.291
2.577	-3.795	-0.269
2.5775	-3.795	-0.242
2.578	-3.794	-0.219
2.5785	-3.794	-0.175
2.579	-3.794	-0.119
2.5795	-3.794	-0.074
2.58	-3.794	-0.014
2.5805	-3.794	0.038
2.581	-3.794	0.098
2.5815	-3.794	0.142
2.582	-3.794	0.181
2.5825	-3.794	0.245
2.583	-3.792	0.333
2.5835	-3.792	0.395
2.584	-3.792	0.399
2.5845	-3.792	0.395
2.585	-3.792	0.376
2.5855	-3.792	0.349
2.586	-3.792	0.314
2.5865	-3.792	0.262
2.587	-3.792	0.169
2.5875	-3.792	0.064
2.588	-3.792	0.007
2.5885	-3.791	-0.021
2.589	-3.791	-0.031
2.5895	-3.791	-0.081
2.59	-3.791	-0.146
2.5905	-3.791	-0.212
2.591	-3.791	-0.273
2.5915	-3.791	-0.330
2.592	-3.791	-0.313
2.5925	-3.791	-0.272
2.593	-3.791	-0.248
2.5935	-3.789	-0.266
2.594	-3.789	-0.291
2.5945	-3.789	-0.302
2.595	-3.789	-0.265
2.5955	-3.789	-0.211
2.596	-3.789	-0.139
2.5965	-3.789	-0.079
2.597	-3.789	-0.036
2.5975	-3.789	-0.009
2.598	-3.789	0.007
2.5985	-3.788	0.060
2.599	-3.788	0.137
2.5995	-3.788	0.188
2.6	-3.788	0.243
2.6005	-3.788	0.284
2.601	-3.788	0.277
2.6015	-3.788	0.263
2.602	-3.788	0.240
2.6025	-3.788	0.245
2.603	-3.788	0.214
2.6035	-3.786	0.168
2.604	-3.786	0.098
2.6045	-3.786	0.056
2.605	-3.786	0.039
2.6055	-3.786	0.029
2.606	-3.786	-0.000
2.6065	-3.786	-0.077
2.607	-3.786	-0.148
2.6075	-3.786	-0.230
2.608	-3.786	-0.294
2.6085	-3.784	-0.321
2.609	-3.784	-0.313
2.6095	-3.784	-0.308
2.61	-3.784	-0.300
2.6105	-3.784	-0.289
2.611	-3.784	-0.273
2.6115	-3.784	-0.270
2.612	-3.784	-0.258
2.6125	-3.784	-0.195
2.613	-3.783	-0.150
2.6135	-3.783	-0.098
2.614	-3.783	-0.065
2.6145	-3.783	-0.019
2.615	-3.783	0.018
2.6155	-3.783	0.063
2.616	-3.783	0.099
2.6165	-3.783	0.130
2.617	-3.783	0.117
2.6175	-3.783	0.116
2.618	-3.781	0.123
2.6185	-3.781	0.112
2.619	-3.781	0.122
2.6195	-3.781	0.131
2.62	-3.781	0.122
2.6205	-3.781	0.081
2.621	-3.781	0.055
2.6215	-3.781	0.012
2.622	-3.781	-0.048
2.6225	-3.780	-0.100
2.623	-3.780	-0.159
2.6235	-3.780	-0.211
2.624	-3.780	-0.257
2.6245	-3.780	-0.291
2.625	-3.780	-0.324
2.6255	-3.780	-0.316
2.626	-3.780	-0.316
2.6265	-3.780	-0.297
2.627	-3.778	-0.288
2.6275	-3.778	-0.270
2.628	-3.778	-0.238
2.6285	-3.778	-0.192
2.629	-3.778	-0.124
2.6295	-3.778	-0.082
2.63	-3.778	-0.039
2.6305	-3.778	0.003
2.631	-3.778	0.075
2.6315	-3.777	0.146
2.632	-3.777	0.188
2.6325	-3.777	0.241
2.633	-3.777	0.313
2.6335	-3.777	0.337
2.634	-3.777	0.353
2.6345	-3.777	0.316
2.635	-3.777	0.305
2.6355	-3.775	0.290
2.636	-3.775	0.264
2.6365	-3.775	0.224
2.637	-3.775	0.180
2.6375	-3.775	0.115
2.638	-3.775	0.076
2.6385	-3.775	0.042
2.639	-3.775	-0.022
2.6395	-3.775	-0.115
2.64	-3.773	-0.190
2.6405	-3.773	-0.243
2.641	-3.773	-0.283
2.6415	-3.773	-0.347
2.642	-3.773	-0.355
2.6425	-3.773	-0.330
2.643	-3.773	-0.305
2.6435	-3.773	-0.302
2.644	-3.773	-0.313
2.6445	-3.772	-0.303
2.645	-3.772	-0.270
2.6455	-3.772	-0.217
2.646	-3.772	-0.184
2.6465	-3.772	-0.156
2.647	-3.772	-0.109
2.6475	-3.772	-0.039
2.648	-3.772	0.034
2.6485	-3.770	0.068
2.649	-3.770	0.121
2.6495	-3.770	0.169
2.65	-3.770	0.200
2.6505	-3.770	0.212
2.651	-3.770	0.229
2.6515	-3.770	0.225
2.652	-3.770	0.220
2.6525	-3.769	0.232
2.653	-3.769	0.219
2.6535	-3.769	0.179
2.654	-3.769	0.126
2.6545	-3.769	0.080
2.655	-3.769	0.047
2.6555	-3.769	-0.005
2.656	-3.769	-0.071
2.6565	-3.767	-0.129
2.657	-3.767	-0.183
2.6575	-3.767	-0.222
2.658	-3.767	-0.266
2.6585	-3.767	-0.266
2.659	-3.767	-0.247
2.6595	-3.767	-0.250
2.66	-3.767	-0.264
2.6605	-3.766	-0.255
2.661	-3.766	-0.234
2.6615	-3.766	-0.208
2.662	-3.766	-0.156
2.6625	-3.766	-0.106
2.663	-3.766	-0.044
2.6635	-3.766	-0.002
2.664	-3.766	0.046
2.6645	-3.764	0.087
2.665	-3.764	0.127
2.6655	-3.764	0.166
2.666	-3.764	0.192
2.6665	-3.764	0.227
2.667	-3.764	0.242
2.6675	-3.764	0.245
2.668	-3.764	0.239
2.6685	-3.763	0.222
2.669	-3.763	0.187
2.6695	-3.763	0.192
2.67	-3.763	0.174
2.6705	-3.763	0.120
2.671	-3.763	0.057
2.6715	-3.763	0.031
2.672	-3.763	-0.002
2.6725	-3.761	-0.070
2.673	-3.761	-0.152
2.6735	-3.761	-0.204
2.674	-3.761	-0.229
2.6745	-3.761	-0.252
2.675	-3.761	-0.282
2.6755	-3.761	-0.287
2.676	-3.761	-0.288
2.6765	-3.759	-0.308
2.677	-3.759	-0.315
2.6775	-3.759	-0.321
2.678	-3.759	-0.294
2.6785	-3.759	-0.255
2.679	-3.759	-0.192
2.6795	-3.759	-0.129
2.68	-3.758	-0.062
2.6805	-3.758	-0.015
2.681	-3.758	0.037
2.6815	-3.758	0.082
2.682	-3.758	0.137
2.6825	-3.758	0.185
2.683	-3.758	0.221
2.6835	-3.758	0.251
2.684	-3.756	0.266
2.6845	-3.756	0.266
2.685	-3.756	0.267
2.6855	-3.756	0.276
2.686	-3.756	0.264
2.6865	-3.756	0.233
2.687	-3.756	0.171
2.6875	-3.755	0.123
2.688	-3.755	0.080
2.6885	-3.755	0.055
2.689	-3.755	0.005
2.6895	-3.755	-0.073
2.69	-3.755	-0.123
2.6905	-3.755	-0.166
2.691	-3.753	-0.204
2.6915	-3.753	-0.259
2.692	-3.753	-0.274
2.6925	-3.753	-0.268
2.693	-3.753	-0.254
2.6935	-3.753	-0.240
2.694	-3.753	-0.238
2.6945	-3.753	-0.228
2.695	-3.752	-0.205
2.6955	-3.752	-0.162
2.696	-3.752	-0.104
2.6965	-3.752	-0.063
2.697	-3.752	-0.026
2.6975	-3.752	0.008
2.698	-3.752	0.044
2.6985	-3.750	0.080
2.699	-3.750	0.112
2.6995	-3.750	0.171
2.7	-3.750	0.213
2.7005	-3.750	0.244
2.701	-3.750	0.249
2.7015	-3.750	0.239
2.702	-3.748	0.212
2.7025	-3.748	0.198
2.703	-3.748	0.179
2.7035	-3.748	0.130
2.704	-3.748	0.086
2.7045	-3.748	0.044
2.705	-3.748	0.037
2.7055	-3.747	0.047
2.706	-3.747	0.018
2.7065	-3.747	-0.029
2.707	-3.747	-0.095
2.7075	-3.747	-0.145
2.708	-3.747	-0.175
2.7085	-3.747	-0.186
2.709	-3.745	-0.181
2.7095	-3.745	-0.195
2.71	-3.745	-0.206
2.7105	-3.745	-0.223
2.711	-3.745	-0.212
2.7115	-3.745	-0.189
2.712	-3.745	-0.160
2.7125	-3.744	-0.138
2.713	-3.744	-0.125
2.7135	-3.744	-0.074
2.714	-3.744	-0.045
2.7145	-3.744	-0.015
2.715	-3.744	0.011
2.7155	-3.744	0.051
2.716	-3.742	0.083
2.7165	-3.742	0.112
2.717	-3.742	0.136
2.7175	-3.742	0.144
2.718	-3.742	0.138
2.7185	-3.742	0.146
2.719	-3.742	0.149
2.7195	-3.741	0.118
2.72	-3.741	0.107
2.7205	-3.741	0.073
2.721	-3.741	0.024
2.7215	-3.741	-0.021
2.722	-3.741	-0.042
2.7225	-3.739	-0.088
2.723	-3.739	-0.155
2.7235	-3.739	-0.209
2.724	-3.739	-0.246
2.7245	-3.739	-0.287
2.725	-3.739	-0.307
2.7255	-3.739	-0.309
2.726	-3.738	-0.332
2.7265	-3.738	-0.358
2.727	-3.738	-0.367
2.7275	-3.738	-0.340
2.728	-3.738	-0.298
2.7285	-3.738	-0.255
2.729	-3.738	-0.199
2.7295	-3.736	-0.141
2.73	-3.736	-0.080
2.7305	-3.736	-0.016
2.731	-3.736	0.040
2.7315	-3.736	0.088
2.732	-3.736	0.141
2.7325	-3.734	0.204
2.733	-3.734	0.261
2.7335	-3.734	0.302
2.734	-3.734	0.328
2.7345	-3.734	0.339
2.735	-3.734	0.333
2.7355	-3.734	0.309
2.736	-3.733	0.295
2.7365	-3.733	0.256
2.737	-3.733	0.200
2.7375	-3.733	0.122
2.738	-3.733	0.043
2.7385	-3.733	-0.032
2.739	-3.733	-0.082
2.7395	-3.731	-0.153
2.74	-3.731	-0.202
2.7405	-3.731	-0.241
2.741	-3.731	-0.283
2.7415	-3.731	-0.290
2.742	-3.731	-0.291
2.7425	-3.730	-0.279
2.743	-3.730	-0.280
2.7435	-3.730	-0.245
2.744	-3.730	-0.230
2.7445	-3.730	-0.239
2.745	-3.730	-0.246
2.7455	-3.728	-0.210
2.746	-3.728	-0.173
2.7465	-3.728	-0.125
2.747	-3.728	-0.070
2.7475	-3.728	-0.006
2.748	-3.728	0.071
2.7485	-3.728	0.134
2.749	-3.727	0.185
2.7495	-3.727	0.220
2.75	-3.727	0.276
2.7505	-3.727	0.310
2.751	-3.727	0.304
2.7515	-3.727	0.299
2.752	-3.725	0.304
2.7525	-3.725	0.281
2.753	-3.725	0.251
2.7535	-3.725	0.212
2.754	-3.725	0.136
2.7545	-3.725	0.073
2.755	-3.723	0.035
2.7555	-3.723	0.008
2.756	-3.723	-0.029
2.7565	-3.723	-0.081
2.757	-3.723	-0.173
2.7575	-3.723	-0.246
2.758	-3.723	-0.295
2.7585	-3.722	-0.292
2.759	-3.722	-0.308
2.7595	-3.722	-0.310
2.76	-3.722	-0.305
2.7605	-3.722	-0.293
2.761	-3.722	-0.299
2.7615	-3.720	-0.272
2.762	-3.720	-0.220
2.7625	-3.720	-0.174
2.763	-3.720	-0.136
2.7635	-3.720	-0.100
2.764	-3.720	-0.062
2.7645	-3.719	-0.026
2.765	-3.719	0.022
2.7655	-3.719	0.111
2.766	-3.719	0.192
2.7665	-3.719	0.246
2.767	-3.719	0.283
2.7675	-3.717	0.293
2.768	-3.717	0.300
2.7685	-3.717	0.282
2.769	-3.717	0.270
2.7695	-3.717	0.250
2.77	-3.717	0.206
2.7705	-3.717	0.170
2.771	-3.716	0.115
2.7715	-3.716	0.060
2.772	-3.716	-0.009
2.7725	-3.716	-0.070
2.773	-3.716	-0.148
2.7735	-3.716	-0.196
2.774	-3.714	-0.253
2.7745	-3.714	-0.307
2.775	-3.714	-0.352
2.7755	-3.714	-0.363
2.776	-3.714	-0.382
2.7765	-3.714	-0.375
2.777	-3.713	-0.350
2.7775	-3.713	-0.321
2.778	-3.713	-0.281
2.7785	-3.713	-0.237
2.779	-3.713	-0.179
2.7795	-3.713	-0.114
2.78	-3.711	-0.059
2.7805	-3.711	-0.014
2.781	-3.711	0.044
2.7815	-3.711	0.080
2.782	-3.711	0.111
2.7825	-3.711	0.138
2.783	-3.709	0.172
2.7835	-3.709	0.205
2.784	-3.709	0.247
2.7845	-3.709	0.303
2.785	-3.709	0.320
2.7855	-3.709	0.334
2.786	-3.708	0.326
2.7865	-3.708	0.299
2.787	-3.708	0.210
2.7875	-3.708	0.135
2.788	-3.708	0.087
2.7885	-3.708	0.033
2.789	-3.706	-0.033
2.7895	-3.706	-0.111
2.79	-3.706	-0.182
2.7905	-3.706	-0.234
2.791	-3.706	-0.264
2.7915	-3.706	-0.291
2.792	-3.705	-0.282
2.7925	-3.705	-0.285
2.793	-3.705	-0.286
2.7935	-3.705	-0.311
2.794	-3.705	-0.296
2.7945	-3.705	-0.279
2.795	-3.703	-0.233
2.7955	-3.703	-0.173
2.796	-3.703	-0.125
2.7965	-3.703	-0.069
2.797	-3.703	0.001
2.7975	-3.703	0.057
2.798	-3.702	0.103
2.7985	-3.702	0.143
2.799	-3.702	0.193
2.7995	-3.702	0.228
2.8	-3.702	0.265
2.8005	-3.702	0.290
2.801	-3.700	0.288
2.8015	-3.700	0.258
2.802	-3.700	0.233
2.8025	-3.700	0.233
2.803	-3.700	0.209
2.8035	-3.700	0.165
2.804	-3.698	0.087
2.8045	-3.698	0.018
2.805	-3.698	-0.022
2.8055	-3.698	-0.052
2.806	-3.698	-0.109
2.8065	-3.698	-0.144
2.807	-3.697	-0.187
2.8075	-3.697	-0.225
2.808	-3.697	-0.262
2.8085	-3.697	-0.280
2.809	-3.697	-0.298
2.8095	-3.697	-0.320
2.81	-3.695	-0.327
2.8105	-3.695	-0.334
2.811	-3.695	-0.334
2.8115	-3.695	-0.292
2.812	-3.695	-0.229
2.8125	-3.695	-0.161
2.813	-3.694	-0.095
2.8135	-3.694	-0.052
2.814	-3.694	-0.014
2.8145	-3.694	0.051
2.815	-3.694	0.099
2.8155	-3.694	0.137
2.816	-3.692	0.191
2.8165	-3.692	0.235
2.817	-3.692	0.249
2.8175	-3.692	0.253
2.818	-3.692	0.241
2.8185	-3.692	0.217
2.819	-3.691	0.197
2.8195	-3.691	0.156
2.82	-3.691	0.109
2.8205	-3.691	0.077
2.821	-3.691	0.102
2.8215	-3.691	0.103
2.822	-3.689	0.093
2.8225	-3.689	0.083
2.823	-3.689	0.032
2.8235	-3.689	-0.021
2.824	-3.689	-0.051
2.8245	-3.689	-0.100
2.825	-3.688	-0.151
2.8255	-3.688	-0.169
2.826	-3.688	-0.171
2.8265	-3.688	-0.173
2.827	-3.688	-0.165
2.8275	-3.688	-0.180
2.828	-3.686	-0.180
2.8285	-3.686	-0.185
2.829	-3.686	-0.161
2.8295	-3.686	-0.147
2.83	-3.686	-0.136
2.8305	-3.686	-0.122
2.831	-3.684	-0.105
2.8315	-3.684	-0.084
2.832	-3.684	-0.055
2.8325	-3.684	-0.044
2.833	-3.684	-0.018
2.8335	-3.684	0.014
2.834	-3.683	0.062
2.8345	-3.683	0.088
2.835	-3.683	0.133
2.8355	-3.683	0.169
2.836	-3.683	0.190
2.8365	-3.683	0.145
2.837	-3.681	0.100
2.8375	-3.681	0.061
2.838	-3.681	0.019
2.8385	-3.681	-0.025
2.839	-3.681	-0.067
2.8395	-3.681	-0.132
2.84	-3.680	-0.189
2.8405	-3.680	-0.227
2.841	-3.680	-0.269
2.8415	-3.680	-0.310
2.842	-3.680	-0.309
2.8425	-3.680	-0.307
2.843	-3.678	-0.316
2.8435	-3.678	-0.322
2.844	-3.678	-0.314
2.8445	-3.678	-0.293
2.845	-3.678	-0.238
2.8455	-3.678	-0.169
2.846	-3.677	-0.114
2.8465	-3.677	-0.085
2.847	-3.677	-0.038
2.8475	-3.677	0.028
2.848	-3.677	0.073
2.8485	-3.677	0.133
2.849	-3.675	0.197
2.8495	-3.675	0.249
2.85	-3.675	0.291
2.8505	-3.675	0.317
2.851	-3.675	0.319
2.8515	-3.675	0.321
2.852	-3.673	0.305
2.8525	-3.673	0.281
2.853	-3.673	0.245
2.8535	-3.673	0.192
2.854	-3.673	0.141
2.8545	-3.673	0.065
2.855	-3.672	0.010
2.8555	-3.672	-0.038
2.856	-3.672	-0.096
2.8565	-3.672	-0.155
2.857	-3.672	-0.205
2.8575	-3.672	-0.259
2.858	-3.670	-0.340
2.8585	-3.670	-0.377
2.859	-3.670	-0.352
2.8595	-3.670	-0.331
2.86	-3.670	-0.321
