0.0	-10.880	-0.003
0.0005	-10.880	-0.020
0.001	-10.880	-0.002
0.0015	-10.880	-0.011
0.002	-10.880	-0.009
0.0025	-10.880	-0.011
0.003	-10.880	0.004
0.0035	-10.880	0.020
0.004	-10.880	0.009
0.0045	-10.880	0.002
0.005	-10.880	-0.018
0.0055	-10.880	-0.017
0.006	-10.880	-0.014
0.0065	-10.880	-0.011
0.007	-10.880	-0.017
0.0075	-10.880	-0.013
0.008	-10.880	-0.026
0.0085	-10.880	-0.033
0.009	-10.880	-0.032
0.0095	-10.880	-0.030
0.01	-10.880	-0.038
0.0105	-10.880	-0.035
0.011	-10.880	-0.041
0.0115	-10.880	-0.049
0.012	-10.880	-0.045
0.0125	-10.880	-0.055
0.013	-10.880	-0.054
0.0135	-10.880	-0.043
0.014	-10.880	-0.042
0.0145	-10.880	-0.033
0.015	-10.880	-0.034
0.0155	-10.880	-0.021
0.016	-10.880	-0.017
0.0165	-10.880	-0.013
0.017	-10.880	-0.002
0.0175	-10.880	-0.010
0.018	-10.880	-0.008
0.0185	-10.880	-0.014
0.019	-10.880	-0.012
0.0195	-10.880	-0.011
0.02	-10.880	-0.000
0.0205	-10.880	0.002
0.021	-10.880	-0.018
0.0215	-10.880	-0.013
0.022	-10.880	-0.008
0.0225	-10.880	-0.001
0.023	-10.880	-0.010
0.0235	-10.880	-0.015
0.024	-10.880	-0.014
0.0245	-10.880	-0.030
0.025	-10.880	-0.024
0.0255	-10.880	-0.036
0.026	-10.880	-0.043
0.0265	-10.880	-0.030
0.027	-10.880	-0.036
0.0275	-10.880	-0.045
0.028	-10.880	-0.045
0.0285	-10.880	-0.040
0.029	-10.880	-0.040
0.0295	-10.880	-0.033
0.03	-10.880	-0.031
0.0305	-10.880	-0.035
0.031	-10.880	-0.030
0.0315	-10.880	-0.041
0.032	-10.880	-0.025
0.0325	-10.880	-0.021
0.033	-10.880	-0.012
0.0335	-10.880	-0.013
0.034	-10.880	-0.014
0.0345	-10.880	-0.010
0.035	-10.880	-0.006
0.0355	-10.880	-0.000
0.036	-10.880	-0.010
0.0365	-10.880	-0.010
0.037	-10.880	0.003
0.0375	-10.880	0.000
0.038	-10.880	-0.011
0.0385	-10.880	-0.005
0.039	-10.880	-0.005
0.0395	-10.880	-0.008
0.04	-10.880	-0.006
0.0405	-10.880	0.005
0.041	-10.880	-0.019
0.0415	-10.880	-0.054
0.042	-10.880	-0.049
0.0425	-10.880	-0.048
0.043	-10.880	-0.035
0.0435	-10.880	-0.042
0.044	-10.880	-0.038
0.0445	-10.880	-0.053
0.045	-10.880	-0.072
0.0455	-10.880	-0.070
0.046	-10.880	-0.055
0.0465	-10.880	-0.041
0.047	-10.880	-0.040
0.0475	-10.880	-0.047
0.048	-10.880	-0.033
0.0485	-10.880	-0.020
0.049	-10.880	-0.026
0.0495	-10.880	-0.019
0.05	-10.880	-0.024
0.0505	-10.880	-0.014
0.051	-10.880	0.000
0.0515	-10.880	0.003
0.052	-10.880	0.020
0.0525	-10.880	0.008
0.053	-10.880	0.014
0.0535	-10.880	0.015
0.054	-10.880	0.007
0.0545	-10.880	0.004
0.055	-10.880	-0.016
0.0555	-10.880	-0.002
0.056	-10.880	-0.020
0.0565	-10.880	-0.018
0.057	-10.880	-0.028
0.0575	-10.880	-0.024
0.058	-10.880	-0.036
0.0585	-10.880	-0.036
0.059	-10.880	-0.030
0.0595	-10.880	-0.042
0.06	-10.880	-0.032
0.0605	-10.880	-0.020
0.061	-10.880	-0.046
0.0615	-10.880	-0.046
0.062	-10.880	-0.060
0.0625	-10.880	-0.040
0.063	-10.880	-0.038
0.0635	-10.880	-0.039
0.064	-10.880	-0.059
0.0645	-10.880	-0.043
0.065	-10.880	-0.027
0.0655	-10.880	-0.026
0.066	-10.880	-0.018
0.0665	-10.880	-0.008
0.067	-10.880	0.001
0.0675	-10.880	-0.000
0.068	-10.880	-0.010
0.0685	-10.880	0.002
0.069	-10.880	0.014
0.0695	-10.880	0.004
0.07	-10.880	0.010
0.0705	-10.880	0.014
0.071	-10.880	0.014
0.0715	-10.880	0.001
0.072	-10.880	-0.010
0.0725	-10.880	-0.010
0.073	-10.880	-0.017
0.0735	-10.880	-0.017
0.074	-10.880	-0.018
0.0745	-10.880	-0.020
0.075	-10.880	-0.023
0.0755	-10.880	-0.042
0.076	-10.880	-0.047
0.0765	-10.880	-0.042
0.077	-10.880	-0.034
0.0775	-10.880	-0.049
0.078	-10.880	-0.057
0.0785	-10.880	-0.065
0.079	-10.880	-0.077
0.0795	-10.880	-0.059
0.08	-10.880	-0.048
0.0805	-10.880	-0.043
0.081	-10.880	-0.033
0.0815	-10.880	-0.022
0.082	-10.880	-0.020
0.0825	-10.880	-0.030
0.083	-10.880	-0.014
0.0835	-10.880	-0.012
0.084	-10.880	0.012
0.0845	-10.880	0.006
0.085	-10.880	0.007
0.0855	-10.880	0.009
0.086	-10.880	0.000
0.0865	-10.880	-0.003
0.087	-10.880	0.003
0.0875	-10.880	0.005
0.088	-10.880	-0.010
0.0885	-10.880	-0.012
0.089	-10.880	-0.017
0.0895	-10.880	-0.010
0.09	-10.880	-0.007
0.0905	-10.880	-0.013
0.091	-10.880	-0.013
0.0915	-10.880	-0.035
0.092	-10.880	-0.043
0.0925	-10.880	-0.042
0.093	-10.880	-0.032
0.0935	-10.880	-0.035
0.094	-10.880	-0.037
0.0945	-10.880	-0.049
0.095	-10.880	-0.054
0.0955	-10.880	-0.050
0.096	-10.880	-0.059
0.0965	-10.880	-0.039
0.097	-10.880	-0.038
0.0975	-10.880	-0.036
0.098	-10.880	-0.025
0.0985	-10.880	-0.027
0.099	-10.880	-0.020
0.0995	-10.880	-0.029
0.1	-10.880	-0.015
0.1005	-10.880	-0.013
0.101	-10.880	-0.015
0.1015	-10.878	-0.024
0.102	-10.878	-0.011
0.1025	-10.878	-0.017
0.103	-10.878	-0.018
0.1035	-10.878	0.004
0.104	-10.878	0.014
0.1045	-10.878	0.011
0.105	-10.878	0.004
0.1055	-10.878	-0.005
0.106	-10.878	-0.002
0.1065	-10.878	0.001
0.107	-10.878	-0.008
0.1075	-10.878	-0.015
0.108	-10.878	-0.016
0.1085	-10.878	-0.026
0.109	-10.878	-0.037
0.1095	-10.878	-0.041
0.11	-10.878	-0.041
0.1105	-10.878	-0.055
0.111	-10.878	-0.058
0.1115	-10.878	-0.065
0.112	-10.878	-0.061
0.1125	-10.878	-0.053
0.113	-10.878	-0.044
0.1135	-10.878	-0.027
0.114	-10.878	-0.031
0.1145	-10.878	-0.039
0.115	-10.878	-0.034
0.1155	-10.878	-0.029
0.116	-10.878	-0.020
0.1165	-10.878	-0.023
0.117	-10.878	-0.005
0.1175	-10.878	0.013
0.118	-10.878	0.005
0.1185	-10.878	-0.005
0.119	-10.878	-0.001
0.1195	-10.878	0.001
0.12	-10.878	-0.011
0.1205	-10.878	0.002
0.121	-10.878	-0.002
0.1215	-10.878	-0.013
0.122	-10.878	-0.005
0.1225	-10.878	-0.008
0.123	-10.878	-0.010
0.1235	-10.878	-0.020
0.124	-10.878	-0.011
0.1245	-10.877	-0.025
0.125	-10.877	-0.034
0.1255	-10.877	-0.036
0.126	-10.877	-0.037
0.1265	-10.877	-0.034
0.127	-10.877	-0.040
0.1275	-10.877	-0.058
0.128	-10.877	-0.060
0.1285	-10.877	-0.069
0.129	-10.877	-0.062
0.1295	-10.877	-0.050
0.13	-10.877	-0.032
0.1305	-10.877	-0.031
0.131	-10.877	-0.045
0.1315	-10.877	-0.026
0.132	-10.877	-0.013
0.1325	-10.877	-0.005
0.133	-10.877	0.005
0.1335	-10.877	-0.007
0.134	-10.877	0.001
0.1345	-10.877	-0.016
0.135	-10.877	-0.010
0.1355	-10.877	-0.014
0.136	-10.877	-0.012
0.1365	-10.877	0.004
0.137	-10.877	-0.008
0.1375	-10.877	0.011
0.138	-10.877	-0.005
0.1385	-10.877	-0.002
0.139	-10.877	0.011
0.1395	-10.877	0.003
0.14	-10.877	-0.004
0.1405	-10.877	-0.012
0.141	-10.875	-0.001
0.1415	-10.875	-0.028
0.142	-10.875	-0.032
0.1425	-10.875	-0.052
0.143	-10.875	-0.051
0.1435	-10.875	-0.040
0.144	-10.875	-0.055
0.1445	-10.875	-0.043
0.145	-10.875	-0.059
0.1455	-10.875	-0.047
0.146	-10.875	-0.051
0.1465	-10.875	-0.037
0.147	-10.875	-0.026
0.1475	-10.875	-0.030
0.148	-10.875	-0.034
0.1485	-10.875	-0.028
0.149	-10.875	-0.021
0.1495	-10.875	-0.021
0.15	-10.875	-0.013
0.1505	-10.875	-0.001
0.151	-10.875	0.008
0.1515	-10.875	-0.003
0.152	-10.875	-0.001
0.1525	-10.875	-0.006
0.153	-10.875	-0.006
0.1535	-10.875	-0.002
0.154	-10.875	-0.007
0.1545	-10.873	-0.012
0.155	-10.873	-0.018
0.1555	-10.873	-0.006
0.156	-10.873	-0.001
0.1565	-10.873	-0.000
0.157	-10.873	0.001
0.1575	-10.873	-0.023
0.158	-10.873	-0.025
0.1585	-10.873	-0.028
0.159	-10.873	-0.034
0.1595	-10.873	-0.032
0.16	-10.873	-0.047
0.1605	-10.873	-0.056
0.161	-10.873	-0.063
0.1615	-10.873	-0.063
0.162	-10.873	-0.057
0.1625	-10.873	-0.035
0.163	-10.873	-0.036
0.1635	-10.873	-0.034
0.164	-10.873	-0.030
0.1645	-10.873	-0.046
0.165	-10.873	-0.026
0.1655	-10.873	-0.024
0.166	-10.872	-0.017
0.1665	-10.872	-0.016
0.167	-10.872	0.000
0.1675	-10.872	0.007
0.168	-10.872	-0.005
0.1685	-10.872	-0.014
0.169	-10.872	-0.004
0.1695	-10.872	-0.008
0.17	-10.872	0.008
0.1705	-10.872	0.010
0.171	-10.872	-0.001
0.1715	-10.872	-0.004
0.172	-10.872	-0.020
0.1725	-10.872	-0.021
0.173	-10.872	-0.023
0.1735	-10.872	-0.024
0.174	-10.872	-0.013
0.1745	-10.872	-0.020
0.175	-10.872	-0.024
0.1755	-10.872	-0.043
0.176	-10.870	-0.043
0.1765	-10.870	-0.038
0.177	-10.870	-0.049
0.1775	-10.870	-0.037
0.178	-10.870	-0.049
0.1785	-10.870	-0.046
0.179	-10.870	-0.052
0.1795	-10.870	-0.045
0.18	-10.870	-0.031
0.1805	-10.870	-0.037
0.181	-10.870	-0.029
0.1815	-10.870	-0.033
0.182	-10.870	-0.015
0.1825	-10.870	-0.017
0.183	-10.870	-0.008
0.1835	-10.870	-0.004
0.184	-10.870	0.018
0.1845	-10.870	0.015
0.185	-10.870	-0.003
0.1855	-10.869	-0.010
0.186	-10.869	-0.004
0.1865	-10.869	-0.005
0.187	-10.869	0.008
0.1875	-10.869	0.004
0.188	-10.869	-0.003
0.1885	-10.869	-0.005
0.189	-10.869	-0.007
0.1895	-10.869	0.009
0.19	-10.869	-0.003
0.1905	-10.869	-0.006
0.191	-10.869	-0.031
0.1915	-10.869	-0.042
0.192	-10.869	-0.048
0.1925	-10.869	-0.046
0.193	-10.869	-0.044
0.1935	-10.869	-0.041
0.194	-10.867	-0.036
0.1945	-10.867	-0.036
0.195	-10.867	-0.050
0.1955	-10.867	-0.039
0.196	-10.867	-0.035
0.1965	-10.867	-0.035
0.197	-10.867	-0.039
0.1975	-10.867	-0.050
0.198	-10.867	-0.045
0.1985	-10.867	-0.047
0.199	-10.867	-0.032
0.1995	-10.867	-0.022
0.2	-10.867	-0.019
0.2005	-10.867	-0.015
0.201	-10.867	-0.014
0.2015	-10.867	-0.007
0.202	-10.866	-0.022
0.2025	-10.866	-0.011
0.203	-10.866	-0.003
0.2035	-10.866	0.007
0.204	-10.866	0.021
0.2045	-10.866	0.018
0.205	-10.866	0.006
0.2055	-10.866	-0.003
0.206	-10.866	-0.008
0.2065	-10.866	-0.010
0.207	-10.866	-0.011
0.2075	-10.866	-0.008
0.208	-10.866	-0.014
0.2085	-10.866	-0.012
0.209	-10.866	-0.022
0.2095	-10.864	-0.039
0.21	-10.864	-0.039
0.2105	-10.864	-0.052
0.211	-10.864	-0.057
0.2115	-10.864	-0.064
0.212	-10.864	-0.066
0.2125	-10.864	-0.044
0.213	-10.864	-0.031
0.2135	-10.864	-0.031
0.214	-10.864	-0.028
0.2145	-10.864	-0.019
0.215	-10.864	-0.017
0.2155	-10.864	-0.031
0.216	-10.864	-0.006
0.2165	-10.864	-0.014
0.217	-10.863	-0.006
0.2175	-10.863	0.004
0.218	-10.863	-0.004
0.2185	-10.863	-0.009
0.219	-10.863	-0.026
0.2195	-10.863	-0.022
0.22	-10.863	0.001
0.2205	-10.863	-0.002
0.221	-10.863	0.012
0.2215	-10.863	0.009
0.222	-10.863	-0.004
0.2225	-10.863	-0.020
0.223	-10.863	-0.012
0.2235	-10.863	-0.017
0.224	-10.861	-0.014
0.2245	-10.861	-0.027
0.225	-10.861	-0.023
0.2255	-10.861	-0.030
0.226	-10.861	-0.034
0.2265	-10.861	-0.032
0.227	-10.861	-0.038
0.2275	-10.861	-0.052
0.228	-10.861	-0.061
0.2285	-10.861	-0.068
0.229	-10.861	-0.046
0.2295	-10.861	-0.033
0.23	-10.861	-0.036
0.2305	-10.859	-0.028
0.231	-10.859	-0.031
0.2315	-10.859	-0.020
0.232	-10.859	-0.006
0.2325	-10.859	-0.014
0.233	-10.859	-0.011
0.2335	-10.859	-0.006
0.234	-10.859	-0.009
0.2345	-10.859	-0.013
0.235	-10.859	0.006
0.2355	-10.859	0.001
0.236	-10.859	-0.017
0.2365	-10.859	-0.009
0.237	-10.858	-0.004
0.2375	-10.858	-0.001
0.238	-10.858	-0.013
0.2385	-10.858	-0.004
0.239	-10.858	0.002
0.2395	-10.858	-0.011
0.24	-10.858	0.000
0.2405	-10.858	-0.004
0.241	-10.858	-0.016
0.2415	-10.858	-0.026
0.242	-10.858	-0.037
0.2425	-10.858	-0.044
0.243	-10.858	-0.050
0.2435	-10.856	-0.051
0.244	-10.856	-0.050
0.2445	-10.856	-0.043
0.245	-10.856	-0.050
0.2455	-10.856	-0.043
0.246	-10.856	-0.035
0.2465	-10.856	-0.036
0.247	-10.856	-0.036
0.2475	-10.856	-0.038
0.248	-10.856	-0.044
0.2485	-10.856	-0.029
0.249	-10.856	-0.013
0.2495	-10.855	-0.003
0.25	-10.855	0.001
0.2505	-10.855	-0.004
0.251	-10.855	0.002
0.2515	-10.855	-0.012
0.252	-10.855	-0.003
0.2525	-10.855	0.002
0.253	-10.855	0.004
0.2535	-10.855	0.010
0.254	-10.855	0.005
0.2545	-10.855	-0.002
0.255	-10.855	-0.014
0.2555	-10.853	-0.016
0.256	-10.853	-0.006
0.2565	-10.853	-0.021
0.257	-10.853	-0.007
0.2575	-10.853	-0.013
0.258	-10.853	-0.023
0.2585	-10.853	-0.034
0.259	-10.853	-0.043
0.2595	-10.853	-0.039
0.26	-10.853	-0.057
0.2605	-10.853	-0.042
0.261	-10.852	-0.053
0.2615	-10.852	-0.052
0.262	-10.852	-0.049
0.2625	-10.852	-0.048
0.263	-10.852	-0.032
0.2635	-10.852	-0.036
0.264	-10.852	-0.039
0.2645	-10.852	-0.045
0.265	-10.852	-0.034
0.2655	-10.852	-0.032
0.266	-10.852	-0.022
0.2665	-10.852	-0.014
0.267	-10.850	-0.014
0.2675	-10.850	-0.009
0.268	-10.850	-0.011
0.2685	-10.850	-0.020
0.269	-10.850	-0.017
0.2695	-10.850	-0.015
0.27	-10.850	0.002
0.2705	-10.850	0.005
0.271	-10.850	0.002
0.2715	-10.850	-0.009
0.272	-10.850	-0.010
0.2725	-10.848	-0.007
0.273	-10.848	-0.015
0.2735	-10.848	-0.025
0.274	-10.848	-0.009
0.2745	-10.848	-0.027
0.275	-10.848	-0.033
0.2755	-10.848	-0.026
0.276	-10.848	-0.033
0.2765	-10.848	-0.035
0.277	-10.848	-0.045
0.2775	-10.848	-0.043
0.278	-10.847	-0.042
0.2785	-10.847	-0.043
0.279	-10.847	-0.033
0.2795	-10.847	-0.030
0.28	-10.847	-0.026
0.2805	-10.847	-0.049
0.281	-10.847	-0.038
0.2815	-10.847	-0.025
0.282	-10.847	-0.021
0.2825	-10.847	-0.020
0.283	-10.847	-0.022
0.2835	-10.845	-0.013
0.284	-10.845	-0.010
0.2845	-10.845	-0.013
0.285	-10.845	-0.017
0.2855	-10.845	-0.007
0.286	-10.845	-0.013
0.2865	-10.845	-0.003
0.287	-10.845	-0.000
0.2875	-10.845	-0.007
0.288	-10.845	-0.003
0.2885	-10.845	-0.006
0.289	-10.844	0.006
0.2895	-10.844	0.004
0.29	-10.844	-0.008
0.2905	-10.844	-0.013
0.291	-10.844	-0.019
0.2915	-10.844	-0.026
0.292	-10.844	-0.029
0.2925	-10.844	-0.039
0.293	-10.844	-0.046
0.2935	-10.844	-0.043
0.294	-10.842	-0.044
0.2945	-10.842	-0.034
0.295	-10.842	-0.052
0.2955	-10.842	-0.042
0.296	-10.842	-0.034
0.2965	-10.842	-0.024
0.297	-10.842	-0.023
0.2975	-10.842	-0.050
0.298	-10.842	-0.042
0.2985	-10.842	-0.038
0.299	-10.842	-0.034
0.2995	-10.841	-0.027
0.3	-10.841	-0.014
0.3005	-10.841	0.001
0.301	-10.841	-0.010
0.3015	-10.841	-0.001
0.302	-10.841	0.004
0.3025	-10.841	-0.010
0.303	-10.841	-0.009
0.3035	-10.841	0.005
0.304	-10.841	0.014
0.3045	-10.839	0.005
0.305	-10.839	-0.002
0.3055	-10.839	-0.001
0.306	-10.839	-0.015
0.3065	-10.839	-0.002
0.307	-10.839	0.001
0.3075	-10.839	-0.001
0.308	-10.839	-0.017
0.3085	-10.839	-0.030
0.309	-10.839	-0.055
0.3095	-10.838	-0.055
0.31	-10.838	-0.033
0.3105	-10.838	-0.043
0.311	-10.838	-0.039
0.3115	-10.838	-0.064
0.312	-10.838	-0.061
0.3125	-10.838	-0.048
0.313	-10.838	-0.034
0.3135	-10.838	-0.036
0.314	-10.838	-0.033
0.3145	-10.838	-0.033
0.315	-10.836	-0.017
0.3155	-10.836	-0.015
0.316	-10.836	-0.011
0.3165	-10.836	-0.005
0.317	-10.836	-0.005
0.3175	-10.836	0.012
0.318	-10.836	-0.010
0.3185	-10.836	-0.000
0.319	-10.836	-0.003
0.3195	-10.836	-0.013
0.32	-10.834	0.002
0.3205	-10.834	0.005
0.321	-10.834	-0.001
0.3215	-10.834	-0.018
0.322	-10.834	-0.013
0.3225	-10.834	-0.013
0.323	-10.834	-0.000
0.3235	-10.834	0.010
0.324	-10.834	0.011
0.3245	-10.834	0.005
0.325	-10.833	-0.008
0.3255	-10.833	-0.048
0.326	-10.833	-0.060
0.3265	-10.833	-0.047
0.327	-10.833	-0.054
0.3275	-10.833	-0.051
0.328	-10.833	-0.051
0.3285	-10.833	-0.059
0.329	-10.833	-0.051
0.3295	-10.833	-0.045
0.33	-10.831	-0.035
0.3305	-10.831	-0.034
0.331	-10.831	-0.032
0.3315	-10.831	-0.026
0.332	-10.831	-0.018
0.3325	-10.831	-0.024
0.333	-10.831	-0.026
0.3335	-10.831	-0.031
0.334	-10.831	-0.012
0.3345	-10.831	-0.005
0.335	-10.830	-0.023
0.3355	-10.830	-0.009
0.336	-10.830	-0.012
0.3365	-10.830	-0.003
0.337	-10.830	0.003
0.3375	-10.830	0.005
0.338	-10.830	-0.003
0.3385	-10.830	-0.020
0.339	-10.830	-0.008
0.3395	-10.830	-0.005
0.34	-10.828	-0.007
0.3405	-10.828	-0.002
0.341	-10.828	-0.019
0.3415	-10.828	-0.028
0.342	-10.828	-0.050
0.3425	-10.828	-0.053
0.343	-10.828	-0.036
0.3435	-10.828	-0.024
0.344	-10.828	-0.025
0.3445	-10.828	-0.040
0.345	-10.827	-0.047
0.3455	-10.827	-0.042
0.346	-10.827	-0.045
0.3465	-10.827	-0.031
0.347	-10.827	-0.036
0.3475	-10.827	-0.052
0.348	-10.827	-0.041
0.3485	-10.827	-0.027
0.349	-10.827	-0.016
0.3495	-10.827	-0.010
0.35	-10.825	0.001
0.3505	-10.825	-0.001
0.351	-10.825	-0.016
0.3515	-10.825	-0.002
0.352	-10.825	-0.005
0.3525	-10.825	0.001
0.353	-10.825	0.010
0.3535	-10.825	0.009
0.354	-10.825	0.003
0.3545	-10.825	-0.003
0.355	-10.823	-0.017
0.3555	-10.823	-0.028
0.356	-10.823	-0.005
0.3565	-10.823	-0.005
0.357	-10.823	-0.011
0.3575	-10.823	-0.022
0.358	-10.823	-0.030
0.3585	-10.823	-0.029
0.359	-10.823	-0.043
0.3595	-10.823	-0.029
0.36	-10.822	-0.044
0.3605	-10.822	-0.043
0.361	-10.822	-0.055
0.3615	-10.822	-0.065
0.362	-10.822	-0.065
0.3625	-10.822	-0.060
0.363	-10.822	-0.040
0.3635	-10.822	-0.041
0.364	-10.822	-0.037
0.3645	-10.822	-0.032
0.365	-10.820	-0.010
0.3655	-10.820	-0.003
0.366	-10.820	-0.010
0.3665	-10.820	-0.012
0.367	-10.820	-0.011
0.3675	-10.820	-0.011
0.368	-10.820	-0.008
0.3685	-10.820	0.008
0.369	-10.820	0.019
0.3695	-10.819	0.018
0.37	-10.819	0.016
0.3705	-10.819	0.007
0.371	-10.819	-0.007
0.3715	-10.819	-0.012
0.372	-10.819	-0.015
0.3725	-10.819	-0.004
0.373	-10.819	0.010
0.3735	-10.819	0.022
0.374	-10.819	0.008
0.3745	-10.817	-0.003
0.375	-10.817	-0.027
0.3755	-10.817	-0.050
0.376	-10.817	-0.053
0.3765	-10.817	-0.031
0.377	-10.817	-0.036
0.3775	-10.817	-0.048
0.378	-10.817	-0.059
0.3785	-10.817	-0.070
0.379	-10.817	-0.056
0.3795	-10.816	-0.062
0.38	-10.816	-0.048
0.3805	-10.816	-0.052
0.381	-10.816	-0.044
0.3815	-10.816	-0.042
0.382	-10.816	-0.029
0.3825	-10.816	-0.014
0.383	-10.816	-0.014
0.3835	-10.816	-0.018
0.384	-10.816	-0.006
0.3845	-10.814	-0.015
0.385	-10.814	-0.015
0.3855	-10.814	-0.005
0.386	-10.814	-0.010
0.3865	-10.814	-0.007
0.387	-10.814	-0.005
0.3875	-10.814	0.015
0.388	-10.814	-0.003
0.3885	-10.814	-0.001
0.389	-10.814	0.010
0.3895	-10.814	0.006
0.39	-10.813	0.003
0.3905	-10.813	0.002
0.391	-10.813	-0.023
0.3915	-10.813	-0.034
0.392	-10.813	-0.040
0.3925	-10.813	-0.052
0.393	-10.813	-0.053
0.3935	-10.813	-0.049
0.394	-10.813	-0.052
0.3945	-10.813	-0.054
0.395	-10.811	-0.059
0.3955	-10.811	-0.053
0.396	-10.811	-0.041
0.3965	-10.811	-0.035
0.397	-10.811	-0.025
0.3975	-10.811	-0.025
0.398	-10.811	-0.030
0.3985	-10.811	-0.016
0.399	-10.811	-0.013
0.3995	-10.811	-0.007
0.4	-10.809	-0.022
0.4005	-10.809	-0.005
0.401	-10.809	-0.004
0.4015	-10.809	-0.009
0.402	-10.809	-0.013
0.4025	-10.809	-0.015
0.403	-10.809	0.003
0.4035	-10.809	0.002
0.404	-10.809	0.007
0.4045	-10.809	-0.008
0.405	-10.808	-0.016
0.4055	-10.808	0.001
0.406	-10.808	-0.005
0.4065	-10.808	-0.009
0.407	-10.808	-0.005
0.4075	-10.808	-0.020
0.408	-10.808	-0.027
0.4085	-10.808	-0.033
0.409	-10.808	-0.043
0.4095	-10.808	-0.038
0.41	-10.806	-0.042
0.4105	-10.806	-0.032
0.411	-10.806	-0.044
0.4115	-10.806	-0.048
0.412	-10.806	-0.051
0.4125	-10.806	-0.040
0.413	-10.806	-0.037
0.4135	-10.806	-0.038
0.414	-10.806	-0.028
0.4145	-10.806	-0.029
0.415	-10.806	-0.022
0.4155	-10.805	-0.033
0.416	-10.805	-0.019
0.4165	-10.805	-0.010
0.417	-10.805	-0.017
0.4175	-10.805	-0.013
0.418	-10.805	-0.012
0.4185	-10.805	-0.011
0.419	-10.805	-0.006
0.4195	-10.805	0.013
0.42	-10.805	0.018
0.4205	-10.803	0.024
0.421	-10.803	-0.002
0.4215	-10.803	-0.022
0.422	-10.803	-0.029
0.4225	-10.803	-0.018
0.423	-10.803	-0.011
0.4235	-10.803	-0.001
0.424	-10.803	-0.004
0.4245	-10.803	-0.011
0.425	-10.803	-0.026
0.4255	-10.803	-0.039
0.426	-10.802	-0.044
0.4265	-10.802	-0.036
0.427	-10.802	-0.020
0.4275	-10.802	-0.020
0.428	-10.802	-0.045
0.4285	-10.802	-0.047
0.429	-10.802	-0.045
0.4295	-10.802	-0.048
0.43	-10.802	-0.041
0.4305	-10.802	-0.052
0.431	-10.800	-0.048
0.4315	-10.800	-0.048
0.432	-10.800	-0.037
0.4325	-10.800	-0.028
0.433	-10.800	-0.020
0.4335	-10.800	-0.007
0.434	-10.800	-0.002
0.4345	-10.800	-0.001
0.435	-10.800	-0.007
0.4355	-10.800	-0.000
0.436	-10.800	-0.018
0.4365	-10.798	0.005
0.437	-10.798	0.014
0.4375	-10.798	0.002
0.438	-10.798	-0.005
0.4385	-10.798	-0.009
0.439	-10.798	-0.005
0.4395	-10.798	-0.001
0.44	-10.798	-0.001
0.4405	-10.798	-0.007
0.441	-10.798	-0.036
0.4415	-10.798	-0.036
0.442	-10.797	-0.037
0.4425	-10.797	-0.047
0.443	-10.797	-0.038
0.4435	-10.797	-0.033
0.444	-10.797	-0.033
0.4445	-10.797	-0.064
0.445	-10.797	-0.072
0.4455	-10.797	-0.055
0.446	-10.797	-0.051
0.4465	-10.797	-0.046
0.447	-10.797	-0.043
0.4475	-10.795	-0.034
0.448	-10.795	-0.018
0.4485	-10.795	-0.007
0.449	-10.795	0.004
0.4495	-10.795	0.007
0.45	-10.795	0.015
0.4505	-10.795	0.014
0.451	-10.795	0.002
0.4515	-10.795	-0.004
0.452	-10.795	0.009
0.4525	-10.795	0.003
0.453	-10.794	0.002
0.4535	-10.794	0.024
0.454	-10.794	0.031
0.4545	-10.794	-0.010
0.455	-10.794	-0.016
0.4555	-10.794	-0.023
0.456	-10.794	-0.018
0.4565	-10.794	-0.025
0.457	-10.794	-0.018
0.4575	-10.794	-0.025
0.458	-10.794	-0.051
0.4585	-10.792	-0.039
0.459	-10.792	-0.056
0.4595	-10.792	-0.043
0.46	-10.792	-0.046
0.4605	-10.792	-0.036
0.461	-10.792	-0.032
0.4615	-10.792	-0.044
0.462	-10.792	-0.040
0.4625	-10.792	-0.036
0.463	-10.792	-0.035
0.4635	-10.792	-0.037
0.464	-10.792	-0.046
0.4645	-10.791	-0.023
0.465	-10.791	-0.027
0.4655	-10.791	-0.018
0.466	-10.791	-0.027
0.4665	-10.791	-0.017
0.467	-10.791	-0.019
0.4675	-10.791	-0.008
0.468	-10.791	-0.007
0.4685	-10.791	-0.017
0.469	-10.791	-0.015
0.4695	-10.791	-0.007
0.47	-10.789	0.016
0.4705	-10.789	0.029
0.471	-10.789	0.016
0.4715	-10.789	-0.009
0.472	-10.789	0.005
0.4725	-10.789	0.007
0.473	-10.789	-0.008
0.4735	-10.789	-0.013
0.474	-10.789	-0.020
0.4745	-10.789	-0.035
0.475	-10.789	-0.048
0.4755	-10.789	-0.033
0.476	-10.788	-0.036
0.4765	-10.788	-0.029
0.477	-10.788	-0.034
0.4775	-10.788	-0.043
0.478	-10.788	-0.046
0.4785	-10.788	-0.071
0.479	-10.788	-0.050
0.4795	-10.788	-0.045
0.48	-10.788	-0.033
0.4805	-10.788	-0.031
0.481	-10.788	-0.042
0.4815	-10.788	-0.025
0.482	-10.786	-0.035
0.4825	-10.786	-0.020
0.483	-10.786	-0.020
0.4835	-10.786	-0.014
0.484	-10.786	-0.001
0.4845	-10.786	-0.002
0.485	-10.786	-0.007
0.4855	-10.786	0.004
0.486	-10.786	-0.003
0.4865	-10.786	0.002
0.487	-10.786	-0.005
0.4875	-10.786	-0.005
0.488	-10.784	-0.009
0.4885	-10.784	-0.003
0.489	-10.784	0.004
0.4895	-10.784	-0.005
0.49	-10.784	-0.003
0.4905	-10.784	-0.022
0.491	-10.784	-0.025
0.4915	-10.784	-0.038
0.492	-10.784	-0.040
0.4925	-10.784	-0.029
0.493	-10.784	-0.042
0.4935	-10.784	-0.041
0.494	-10.784	-0.045
0.4945	-10.783	-0.045
0.495	-10.783	-0.052
0.4955	-10.783	-0.063
0.496	-10.783	-0.039
0.4965	-10.783	-0.033
0.497	-10.783	-0.033
0.4975	-10.783	-0.037
0.498	-10.783	-0.031
0.4985	-10.783	-0.016
0.499	-10.783	-0.036
0.4995	-10.783	-0.019
0.5	-10.783	-0.008
0.5005	-10.783	0.004
0.501	-10.781	0.001
0.5015	-10.781	-0.009
0.502	-10.781	0.002
0.5025	-10.781	-0.018
0.503	-10.781	-0.005
0.5035	-10.781	-0.011
0.504	-10.781	0.003
0.5045	-10.781	-0.009
0.505	-10.781	-0.014
0.5055	-10.781	-0.001
0.506	-10.781	-0.008
0.5065	-10.781	-0.020
0.507	-10.781	-0.025
0.5075	-10.780	-0.019
0.508	-10.780	-0.024
0.5085	-10.780	-0.023
0.509	-10.780	-0.025
0.5095	-10.780	-0.026
0.51	-10.780	-0.045
0.5105	-10.780	-0.042
0.511	-10.780	-0.037
0.5115	-10.780	-0.035
0.512	-10.780	-0.054
0.5125	-10.780	-0.055
0.513	-10.780	-0.035
0.5135	-10.780	-0.024
0.514	-10.778	-0.020
0.5145	-10.778	-0.033
0.515	-10.778	-0.022
0.5155	-10.778	-0.018
0.516	-10.778	-0.021
0.5165	-10.778	-0.001
0.517	-10.778	0.017
0.5175	-10.778	0.011
0.518	-10.778	-0.005
0.5185	-10.778	-0.011
0.519	-10.778	-0.019
0.5195	-10.778	-0.026
0.52	-10.778	-0.006
0.5205	-10.778	-0.004
0.521	-10.777	0.001
0.5215	-10.777	-0.004
0.522	-10.777	-0.003
0.5225	-10.777	0.005
0.523	-10.777	0.005
0.5235	-10.777	-0.002
0.524	-10.777	-0.012
0.5245	-10.777	-0.016
0.525	-10.777	-0.032
0.5255	-10.777	-0.051
0.526	-10.777	-0.051
0.5265	-10.777	-0.039
0.527	-10.777	-0.048
0.5275	-10.777	-0.052
0.528	-10.775	-0.042
0.5285	-10.775	-0.050
0.529	-10.775	-0.038
0.5295	-10.775	-0.037
0.53	-10.775	-0.027
0.5305	-10.775	-0.025
0.531	-10.775	-0.027
0.5315	-10.775	-0.024
0.532	-10.775	-0.018
0.5325	-10.775	-0.020
0.533	-10.775	-0.036
0.5335	-10.775	-0.023
0.534	-10.775	-0.010
0.5345	-10.775	-0.012
0.535	-10.773	-0.009
0.5355	-10.773	-0.005
0.536	-10.773	0.000
0.5365	-10.773	-0.014
0.537	-10.773	-0.006
0.5375	-10.773	-0.007
0.538	-10.773	-0.008
0.5385	-10.773	-0.008
0.539	-10.773	0.008
0.5395	-10.773	0.006
0.54	-10.773	-0.005
0.5405	-10.773	-0.006
0.541	-10.773	-0.011
0.5415	-10.773	-0.017
0.542	-10.773	-0.039
0.5425	-10.772	-0.047
0.543	-10.772	-0.038
0.5435	-10.772	-0.036
0.544	-10.772	-0.036
0.5445	-10.772	-0.053
0.545	-10.772	-0.062
0.5455	-10.772	-0.064
0.546	-10.772	-0.049
0.5465	-10.772	-0.040
0.547	-10.772	-0.034
0.5475	-10.772	-0.040
0.548	-10.772	-0.007
0.5485	-10.772	-0.014
0.549	-10.772	-0.018
0.5495	-10.772	-0.008
0.55	-10.770	-0.007
0.5505	-10.770	0.006
0.551	-10.770	-0.001
0.5515	-10.770	0.004
0.552	-10.770	-0.013
0.5525	-10.770	-0.019
0.553	-10.770	-0.010
0.5535	-10.770	-0.006
0.554	-10.770	0.015
0.5545	-10.770	0.005
0.555	-10.770	-0.007
0.5555	-10.770	-0.010
0.556	-10.770	0.001
0.5565	-10.770	-0.007
0.557	-10.770	-0.021
0.5575	-10.770	-0.007
0.558	-10.769	-0.025
0.5585	-10.769	-0.032
0.559	-10.769	-0.052
0.5595	-10.769	-0.049
0.56	-10.769	-0.043
0.5605	-10.769	-0.039
0.561	-10.769	-0.037
0.5615	-10.769	-0.050
0.562	-10.769	-0.050
0.5625	-10.769	-0.054
0.563	-10.769	-0.034
0.5635	-10.769	-0.031
0.564	-10.769	-0.039
0.5645	-10.769	-0.034
0.565	-10.769	-0.028
0.5655	-10.769	-0.024
0.566	-10.769	-0.020
0.5665	-10.767	-0.006
0.567	-10.767	0.001
0.5675	-10.767	0.011
0.568	-10.767	-0.006
0.5685	-10.767	0.000
0.569	-10.767	-0.003
0.5695	-10.767	0.008
0.57	-10.767	0.013
0.5705	-10.767	0.003
0.571	-10.767	0.010
0.5715	-10.767	-0.000
0.572	-10.767	-0.012
0.5725	-10.767	-0.006
0.573	-10.767	-0.014
0.5735	-10.767	-0.012
0.574	-10.767	-0.019
0.5745	-10.767	-0.018
0.575	-10.766	-0.027
0.5755	-10.766	-0.043
0.576	-10.766	-0.043
0.5765	-10.766	-0.029
0.577	-10.766	-0.035
0.5775	-10.766	-0.048
0.578	-10.766	-0.045
0.5785	-10.766	-0.045
0.579	-10.766	-0.036
0.5795	-10.766	-0.029
0.58	-10.766	-0.026
0.5805	-10.766	-0.028
0.581	-10.766	-0.050
0.5815	-10.766	-0.049
0.582	-10.766	-0.039
0.5825	-10.766	-0.023
0.583	-10.766	-0.021
0.5835	-10.766	-0.010
0.584	-10.764	-0.002
0.5845	-10.764	-0.013
0.585	-10.764	-0.005
0.5855	-10.764	-0.008
0.586	-10.764	-0.005
0.5865	-10.764	0.009
0.587	-10.764	0.013
0.5875	-10.764	0.012
0.588	-10.764	0.016
0.5885	-10.764	0.014
0.589	-10.764	0.012
0.5895	-10.764	-0.011
0.59	-10.764	-0.015
0.5905	-10.764	-0.011
0.591	-10.764	-0.026
0.5915	-10.764	-0.029
0.592	-10.764	-0.036
0.5925	-10.764	-0.035
0.593	-10.764	-0.026
0.5935	-10.763	-0.030
0.594	-10.763	-0.046
0.5945	-10.763	-0.065
0.595	-10.763	-0.059
0.5955	-10.763	-0.063
0.596	-10.763	-0.055
0.5965	-10.763	-0.047
0.597	-10.763	-0.049
0.5975	-10.763	-0.035
0.598	-10.763	-0.037
0.5985	-10.763	-0.026
0.599	-10.763	-0.019
0.5995	-10.763	-0.014
0.6	-10.763	-0.011
0.6005	-10.763	0.019
0.601	-10.763	0.022
0.6015	-10.763	0.010
0.602	-10.763	0.003
0.6025	-10.763	-0.011
0.603	-10.763	0.001
0.6035	-10.761	0.009
0.604	-10.761	0.013
0.6045	-10.761	0.004
0.605	-10.761	0.001
0.6055	-10.761	-0.001
0.606	-10.761	-0.006
0.6065	-10.761	-0.006
0.607	-10.761	-0.012
0.6075	-10.761	-0.034
0.608	-10.761	-0.035
0.6085	-10.761	-0.042
0.609	-10.761	-0.052
0.6095	-10.761	-0.059
0.61	-10.761	-0.044
0.6105	-10.761	-0.040
0.611	-10.761	-0.035
0.6115	-10.761	-0.054
0.612	-10.761	-0.046
0.6125	-10.761	-0.052
0.613	-10.761	-0.029
0.6135	-10.761	-0.036
0.614	-10.759	-0.047
0.6145	-10.759	-0.038
0.615	-10.759	-0.051
0.6155	-10.759	-0.013
0.616	-10.759	-0.014
0.6165	-10.759	-0.010
0.617	-10.759	-0.013
0.6175	-10.759	-0.017
0.618	-10.759	-0.016
0.6185	-10.759	-0.024
0.619	-10.759	-0.019
0.6195	-10.759	-0.009
0.62	-10.759	0.000
0.6205	-10.759	0.000
0.621	-10.759	-0.001
0.6215	-10.759	-0.003
0.622	-10.759	-0.021
0.6225	-10.759	-0.010
0.623	-10.759	-0.011
0.6235	-10.759	-0.022
0.624	-10.759	-0.024
0.6245	-10.759	-0.024
0.625	-10.758	-0.031
0.6255	-10.758	-0.045
0.626	-10.758	-0.039
0.6265	-10.758	-0.033
0.627	-10.758	-0.047
0.6275	-10.758	-0.047
0.628	-10.758	-0.051
0.6285	-10.758	-0.052
0.629	-10.758	-0.056
0.6295	-10.758	-0.047
0.63	-10.758	-0.031
0.6305	-10.758	-0.038
0.631	-10.758	-0.040
0.6315	-10.758	-0.036
0.632	-10.758	-0.028
0.6325	-10.758	-0.022
0.633	-10.758	-0.018
0.6335	-10.758	-0.022
0.634	-10.758	-0.011
0.6345	-10.758	-0.009
0.635	-10.758	0.001
0.6355	-10.758	-0.015
0.636	-10.758	-0.005
0.6365	-10.758	-0.004
0.637	-10.756	-0.005
0.6375	-10.756	-0.009
0.638	-10.756	-0.005
0.6385	-10.756	-0.001
0.639	-10.756	-0.001
0.6395	-10.756	0.007
0.64	-10.756	-0.003
0.6405	-10.756	-0.006
0.641	-10.756	-0.019
0.6415	-10.756	-0.034
0.642	-10.756	-0.045
0.6425	-10.756	-0.057
0.643	-10.756	-0.056
0.6435	-10.756	-0.055
0.644	-10.756	-0.040
0.6445	-10.756	-0.047
0.645	-10.756	-0.043
0.6455	-10.756	-0.045
0.646	-10.756	-0.028
0.6465	-10.756	-0.025
0.647	-10.756	-0.020
0.6475	-10.756	-0.024
0.648	-10.756	-0.026
0.6485	-10.756	-0.023
0.649	-10.756	-0.018
0.6495	-10.756	-0.022
0.65	-10.755	-0.004
0.6505	-10.755	0.003
0.651	-10.755	-0.007
0.6515	-10.755	-0.014
0.652	-10.755	-0.007
0.6525	-10.755	-0.018
0.653	-10.755	-0.002
0.6535	-10.755	0.010
0.654	-10.755	0.013
0.6545	-10.755	-0.008
0.655	-10.755	-0.011
0.6555	-10.755	-0.013
0.656	-10.755	-0.024
0.6565	-10.755	-0.007
0.657	-10.755	-0.007
0.6575	-10.755	-0.010
0.658	-10.755	-0.033
0.6585	-10.755	-0.045
0.659	-10.755	-0.050
0.6595	-10.755	-0.049
0.66	-10.755	-0.042
0.6605	-10.755	-0.043
0.661	-10.755	-0.041
0.6615	-10.755	-0.034
0.662	-10.755	-0.037
0.6625	-10.755	-0.034
0.663	-10.755	-0.025
0.6635	-10.755	-0.034
0.664	-10.755	-0.035
0.6645	-10.755	-0.043
0.665	-10.753	-0.040
0.6655	-10.753	-0.020
0.666	-10.753	-0.023
0.6665	-10.753	-0.024
0.667	-10.753	-0.002
0.6675	-10.753	-0.007
0.668	-10.753	-0.011
0.6685	-10.753	-0.018
0.669	-10.753	-0.014
0.6695	-10.753	-0.002
0.67	-10.753	0.015
0.6705	-10.753	0.006
0.671	-10.753	-0.007
0.6715	-10.753	-0.020
0.672	-10.753	-0.008
0.6725	-10.753	-0.001
0.673	-10.753	-0.006
0.6735	-10.753	-0.001
0.674	-10.753	-0.019
0.6745	-10.753	-0.026
0.675	-10.753	-0.036
0.6755	-10.753	-0.054
0.676	-10.753	-0.051
0.6765	-10.753	-0.051
0.677	-10.753	-0.038
0.6775	-10.753	-0.044
0.678	-10.753	-0.053
0.6785	-10.753	-0.055
0.679	-10.753	-0.039
0.6795	-10.753	-0.031
0.68	-10.753	-0.042
0.6805	-10.753	-0.049
0.681	-10.753	-0.043
0.6815	-10.752	-0.043
0.682	-10.752	-0.039
0.6825	-10.752	-0.020
0.683	-10.752	-0.006
0.6835	-10.752	-0.012
0.684	-10.752	0.005
0.6845	-10.752	0.006
0.685	-10.752	-0.002
0.6855	-10.752	-0.004
0.686	-10.752	-0.009
0.6865	-10.752	-0.009
0.687	-10.752	0.015
0.6875	-10.752	0.011
0.688	-10.752	0.005
0.6885	-10.752	0.007
0.689	-10.752	0.010
0.6895	-10.752	-0.000
0.69	-10.752	-0.007
0.6905	-10.752	-0.003
0.691	-10.752	-0.025
0.6915	-10.752	-0.036
0.692	-10.752	-0.039
0.6925	-10.752	-0.056
0.693	-10.752	-0.046
0.6935	-10.752	-0.049
0.694	-10.752	-0.044
0.6945	-10.752	-0.050
0.695	-10.752	-0.047
0.6955	-10.752	-0.066
0.696	-10.752	-0.058
0.6965	-10.752	-0.039
0.697	-10.752	-0.046
0.6975	-10.752	-0.036
0.698	-10.752	-0.032
0.6985	-10.752	-0.034
0.699	-10.752	-0.031
0.6995	-10.752	-0.022
0.7	-10.752	-0.020
0.7005	-10.752	-0.017
0.701	-10.752	-0.008
0.7015	-10.750	-0.004
0.702	-10.750	-0.010
0.7025	-10.750	-0.013
0.703	-10.750	0.006
0.7035	-10.750	0.005
0.704	-10.750	0.011
0.7045	-10.750	0.013
0.705	-10.750	0.005
0.7055	-10.750	-0.007
0.706	-10.750	-0.017
0.7065	-10.750	-0.026
0.707	-10.750	-0.018
0.7075	-10.750	-0.033
0.708	-10.750	-0.032
0.7085	-10.750	-0.033
0.709	-10.750	-0.039
0.7095	-10.750	-0.038
0.71	-10.750	-0.037
0.7105	-10.750	-0.039
0.711	-10.750	-0.043
0.7115	-10.750	-0.050
0.712	-10.750	-0.044
0.7125	-10.750	-0.042
0.713	-10.750	-0.033
0.7135	-10.750	-0.030
0.714	-10.750	-0.045
0.7145	-10.750	-0.035
0.715	-10.750	-0.035
0.7155	-10.750	-0.027
0.716	-10.750	-0.030
0.7165	-10.750	-0.023
0.717	-10.750	-0.011
0.7175	-10.750	-0.021
0.718	-10.750	-0.013
0.7185	-10.750	-0.012
0.719	-10.750	-0.017
0.7195	-10.750	-0.012
0.72	-10.750	-0.006
0.7205	-10.750	0.005
0.721	-10.750	-0.008
0.7215	-10.750	-0.016
0.722	-10.750	-0.021
0.7225	-10.750	-0.014
0.723	-10.750	-0.007
0.7235	-10.750	-0.006
0.724	-10.750	-0.009
0.7245	-10.750	-0.021
0.725	-10.750	-0.025
0.7255	-10.750	-0.034
0.726	-10.750	-0.027
0.7265	-10.748	-0.030
0.727	-10.748	-0.037
0.7275	-10.748	-0.038
0.728	-10.748	-0.040
0.7285	-10.748	-0.057
0.729	-10.748	-0.063
0.7295	-10.748	-0.056
0.73	-10.748	-0.046
0.7305	-10.748	-0.047
0.731	-10.748	-0.045
0.7315	-10.748	-0.029
0.732	-10.748	-0.022
0.7325	-10.748	-0.013
0.733	-10.748	-0.013
0.7335	-10.748	-0.012
0.734	-10.748	-0.005
0.7345	-10.748	-0.019
0.735	-10.748	0.006
0.7355	-10.748	0.004
0.736	-10.748	-0.001
0.7365	-10.748	-0.006
0.737	-10.748	0.002
0.7375	-10.748	0.014
0.738	-10.748	-0.003
0.7385	-10.748	0.000
0.739	-10.748	-0.012
0.7395	-10.748	-0.003
0.74	-10.748	0.006
0.7405	-10.748	-0.005
0.741	-10.748	-0.015
0.7415	-10.748	-0.028
0.742	-10.748	-0.042
0.7425	-10.748	-0.040
0.743	-10.748	-0.035
0.7435	-10.748	-0.028
0.744	-10.748	-0.030
0.7445	-10.748	-0.033
0.745	-10.748	-0.054
0.7455	-10.748	-0.063
0.746	-10.748	-0.035
0.7465	-10.748	-0.026
0.747	-10.748	-0.036
0.7475	-10.748	-0.037
0.748	-10.748	-0.038
0.7485	-10.748	-0.033
0.749	-10.748	-0.034
0.7495	-10.748	-0.026
0.75	-10.748	-0.019
0.7505	-10.748	0.005
0.751	-10.748	0.013
0.7515	-10.748	-0.004
0.752	-10.748	0.014
0.7525	-10.748	-0.008
0.753	-10.748	-0.002
0.7535	-10.748	-0.007
0.754	-10.748	-0.000
0.7545	-10.748	-0.005
0.755	-10.748	-0.021
0.7555	-10.748	-0.002
0.756	-10.748	0.001
0.7565	-10.748	-0.001
0.757	-10.748	-0.004
0.7575	-10.748	-0.016
0.758	-10.748	-0.025
0.7585	-10.748	-0.042
0.759	-10.748	-0.050
0.7595	-10.748	-0.046
0.76	-10.748	-0.044
0.7605	-10.748	-0.043
0.761	-10.748	-0.051
0.7615	-10.748	-0.037
0.762	-10.748	-0.057
0.7625	-10.748	-0.058
0.763	-10.748	-0.030
0.7635	-10.748	-0.022
0.764	-10.748	-0.032
0.7645	-10.748	-0.043
0.765	-10.748	-0.028
0.7655	-10.748	-0.032
0.766	-10.748	-0.026
0.7665	-10.748	-0.008
0.767	-10.747	-0.008
0.7675	-10.747	0.007
0.768	-10.747	0.005
0.7685	-10.747	-0.000
0.769	-10.747	-0.013
0.7695	-10.747	-0.011
0.77	-10.747	-0.007
0.7705	-10.747	-0.005
0.771	-10.747	-0.007
0.7715	-10.747	-0.002
0.772	-10.747	-0.016
0.7725	-10.747	-0.008
0.773	-10.747	-0.011
0.7735	-10.747	-0.005
0.774	-10.747	-0.023
0.7745	-10.747	-0.043
0.775	-10.747	-0.054
0.7755	-10.747	-0.066
0.776	-10.747	-0.050
0.7765	-10.747	-0.048
0.777	-10.747	-0.052
0.7775	-10.747	-0.047
0.778	-10.747	-0.043
0.7785	-10.747	-0.033
0.779	-10.747	-0.049
0.7795	-10.747	-0.029
0.78	-10.747	-0.029
0.7805	-10.747	-0.016
0.781	-10.747	-0.032
0.7815	-10.747	-0.029
0.782	-10.747	-0.020
0.7825	-10.747	-0.017
0.783	-10.747	-0.023
0.7835	-10.747	-0.022
0.784	-10.747	-0.022
0.7845	-10.747	-0.008
0.785	-10.747	0.002
0.7855	-10.747	0.013
0.786	-10.747	0.011
0.7865	-10.747	0.006
0.787	-10.747	0.003
0.7875	-10.747	0.008
0.788	-10.747	0.005
0.7885	-10.747	-0.002
0.789	-10.747	0.006
0.7895	-10.747	-0.004
0.79	-10.747	-0.017
0.7905	-10.747	-0.015
0.791	-10.747	-0.020
0.7915	-10.747	-0.030
0.792	-10.747	-0.040
0.7925	-10.747	-0.048
0.793	-10.747	-0.047
0.7935	-10.747	-0.049
0.794	-10.747	-0.049
0.7945	-10.747	-0.043
0.795	-10.747	-0.042
0.7955	-10.747	-0.032
0.796	-10.747	-0.039
0.7965	-10.747	-0.013
0.797	-10.747	-0.017
0.7975	-10.747	-0.023
0.798	-10.747	-0.023
0.7985	-10.747	-0.022
0.799	-10.747	-0.005
0.7995	-10.747	-0.012
0.8	-10.747	-0.001
0.8005	-10.747	0.007
0.801	-10.747	0.001
0.8015	-10.747	-0.015
0.802	-10.747	0.002
0.8025	-10.747	0.003
0.803	-10.747	-0.002
0.8035	-10.747	-0.004
0.804	-10.747	-0.004
0.8045	-10.747	-0.011
0.805	-10.747	-0.015
0.8055	-10.747	-0.020
0.806	-10.747	-0.008
0.8065	-10.747	-0.014
0.807	-10.747	-0.016
0.8075	-10.747	-0.030
0.808	-10.747	-0.033
0.8085	-10.747	-0.040
0.809	-10.747	-0.048
0.8095	-10.747	-0.052
0.81	-10.747	-0.032
0.8105	-10.747	-0.039
0.811	-10.747	-0.041
0.8115	-10.747	-0.056
0.812	-10.747	-0.058
0.8125	-10.747	-0.058
0.813	-10.747	-0.041
0.8135	-10.747	-0.038
0.814	-10.747	-0.051
0.8145	-10.747	-0.047
0.815	-10.747	-0.039
0.8155	-10.747	-0.036
0.816	-10.747	-0.017
0.8165	-10.747	-0.031
0.817	-10.747	-0.007
0.8175	-10.747	-0.008
0.818	-10.747	-0.011
0.8185	-10.747	-0.007
0.819	-10.747	-0.001
0.8195	-10.747	0.007
0.82	-10.747	-0.009
0.8205	-10.747	0.001
0.821	-10.747	-0.014
0.8215	-10.747	-0.015
0.822	-10.747	-0.007
0.8225	-10.747	-0.001
0.823	-10.747	0.001
0.8235	-10.747	0.003
0.824	-10.747	-0.009
0.8245	-10.747	-0.019
0.825	-10.747	-0.040
0.8255	-10.747	-0.041
0.826	-10.747	-0.039
0.8265	-10.747	-0.030
0.827	-10.747	-0.034
0.8275	-10.747	-0.042
0.828	-10.747	-0.048
0.8285	-10.747	-0.055
0.829	-10.747	-0.055
0.8295	-10.747	-0.051
0.83	-10.747	-0.047
0.8305	-10.747	-0.035
0.831	-10.747	-0.040
0.8315	-10.747	-0.022
0.832	-10.747	-0.015
0.8325	-10.747	-0.019
0.833	-10.747	-0.021
0.8335	-10.747	-0.021
0.834	-10.747	0.003
0.8345	-10.747	0.003
0.835	-10.747	0.004
0.8355	-10.747	-0.003
0.836	-10.747	-0.011
0.8365	-10.747	-0.004
0.837	-10.747	-0.010
0.8375	-10.747	0.009
0.838	-10.747	-0.007
0.8385	-10.747	-0.010
0.839	-10.747	-0.015
0.8395	-10.747	-0.023
0.84	-10.747	-0.012
0.8405	-10.747	-0.011
0.841	-10.747	-0.013
0.8415	-10.747	-0.016
0.842	-10.747	-0.027
0.8425	-10.747	-0.035
0.843	-10.747	-0.039
0.8435	-10.747	-0.029
0.844	-10.747	-0.040
0.8445	-10.747	-0.060
0.845	-10.747	-0.063
0.8455	-10.747	-0.053
0.846	-10.747	-0.040
0.8465	-10.747	-0.034
0.847	-10.747	-0.032
0.8475	-10.747	-0.034
0.848	-10.747	-0.036
0.8485	-10.747	-0.029
0.849	-10.747	-0.020
0.8495	-10.747	-0.009
0.85	-10.747	-0.009
0.8505	-10.747	-0.000
0.851	-10.747	0.006
0.8515	-10.747	0.001
0.852	-10.747	-0.000
0.8525	-10.747	-0.002
0.853	-10.747	-0.000
0.8535	-10.747	0.003
0.854	-10.747	-0.019
0.8545	-10.747	-0.010
0.855	-10.747	-0.018
0.8555	-10.747	-0.011
0.856	-10.747	-0.008
0.8565	-10.747	-0.015
0.857	-10.747	-0.008
0.8575	-10.747	-0.023
0.858	-10.747	-0.020
0.8585	-10.747	-0.032
0.859	-10.747	-0.039
0.8595	-10.747	-0.042
0.86	-10.747	-0.046
0.8605	-10.747	-0.036
0.861	-10.747	-0.054
0.8615	-10.747	-0.062
0.862	-10.747	-0.053
0.8625	-10.747	-0.045
0.863	-10.747	-0.037
0.8635	-10.747	-0.039
0.864	-10.747	-0.033
0.8645	-10.747	-0.032
0.865	-10.747	-0.027
0.8655	-10.747	-0.018
0.866	-10.747	0.002
0.8665	-10.747	0.001
0.867	-10.747	0.017
0.8675	-10.747	0.009
0.868	-10.747	0.000
0.8685	-10.747	-0.006
0.869	-10.747	-0.007
0.8695	-10.747	-0.010
0.87	-10.747	-0.003
0.8705	-10.747	0.004
0.871	-10.747	-0.013
0.8715	-10.747	-0.008
0.872	-10.747	-0.015
0.8725	-10.747	-0.007
0.873	-10.747	-0.004
0.8735	-10.747	-0.005
0.874	-10.747	0.001
0.8745	-10.747	-0.027
0.875	-10.747	-0.022
0.8755	-10.748	-0.057
0.876	-10.748	-0.050
0.8765	-10.748	-0.050
0.877	-10.748	-0.045
0.8775	-10.748	-0.035
0.878	-10.748	-0.055
0.8785	-10.748	-0.052
0.879	-10.748	-0.068
0.8795	-10.748	-0.046
0.88	-10.748	-0.045
0.8805	-10.748	-0.044
0.881	-10.748	-0.039
0.8815	-10.748	-0.029
0.882	-10.748	-0.023
0.8825	-10.748	-0.013
0.883	-10.748	-0.011
0.8835	-10.748	0.001
0.884	-10.748	0.013
0.8845	-10.748	0.007
0.885	-10.748	-0.005
0.8855	-10.748	-0.002
0.886	-10.748	-0.003
0.8865	-10.748	-0.002
0.887	-10.748	0.007
0.8875	-10.748	0.003
0.888	-10.748	-0.009
0.8885	-10.748	0.003
0.889	-10.748	0.008
0.8895	-10.748	0.003
0.89	-10.748	-0.008
0.8905	-10.748	-0.005
0.891	-10.748	-0.025
0.8915	-10.748	-0.043
0.892	-10.748	-0.039
0.8925	-10.748	-0.049
0.893	-10.748	-0.049
0.8935	-10.748	-0.056
0.894	-10.748	-0.053
0.8945	-10.748	-0.060
0.895	-10.748	-0.072
0.8955	-10.748	-0.058
0.896	-10.748	-0.038
0.8965	-10.748	-0.024
0.897	-10.748	-0.028
0.8975	-10.748	-0.026
0.898	-10.748	-0.018
0.8985	-10.748	-0.030
0.899	-10.748	-0.010
0.8995	-10.748	-0.011
0.9	-10.748	-0.004
0.9005	-10.748	-0.002
0.901	-10.748	-0.007
0.9015	-10.748	-0.006
0.902	-10.748	-0.012
0.9025	-10.748	-0.008
0.903	-10.748	-0.010
0.9035	-10.748	-0.014
0.904	-10.748	-0.011
0.9045	-10.748	-0.016
0.905	-10.748	-0.007
0.9055	-10.748	-0.011
0.906	-10.748	-0.007
0.9065	-10.748	-0.009
0.907	-10.748	-0.003
0.9075	-10.748	-0.018
0.908	-10.748	-0.022
0.9085	-10.748	-0.033
0.909	-10.748	-0.041
0.9095	-10.748	-0.047
0.91	-10.748	-0.042
0.9105	-10.748	-0.050
0.911	-10.748	-0.046
0.9115	-10.748	-0.061
0.912	-10.748	-0.069
0.9125	-10.748	-0.044
0.913	-10.748	-0.038
0.9135	-10.748	-0.037
0.914	-10.748	-0.041
0.9145	-10.748	-0.039
0.915	-10.748	-0.016
0.9155	-10.748	-0.022
0.916	-10.748	0.004
0.9165	-10.748	0.007
0.917	-10.748	0.018
0.9175	-10.748	0.006
0.918	-10.748	0.006
0.9185	-10.748	-0.001
0.919	-10.748	-0.010
0.9195	-10.748	-0.006
0.92	-10.748	-0.011
0.9205	-10.748	-0.018
0.921	-10.748	-0.016
0.9215	-10.748	-0.010
0.922	-10.748	-0.002
0.9225	-10.748	-0.004
0.923	-10.748	-0.012
0.9235	-10.748	-0.016
0.924	-10.748	-0.009
0.9245	-10.748	-0.012
0.925	-10.748	-0.034
0.9255	-10.748	-0.035
0.926	-10.748	-0.036
0.9265	-10.748	-0.045
0.927	-10.748	-0.043
0.9275	-10.748	-0.050
0.928	-10.748	-0.050
0.9285	-10.748	-0.051
0.929	-10.748	-0.055
0.9295	-10.748	-0.041
0.93	-10.748	-0.039
0.9305	-10.748	-0.035
0.931	-10.748	-0.034
0.9315	-10.748	-0.020
0.932	-10.748	-0.016
0.9325	-10.748	-0.026
0.933	-10.748	-0.004
0.9335	-10.748	-0.014
0.934	-10.748	-0.005
0.9345	-10.748	-0.008
0.935	-10.748	-0.013
0.9355	-10.748	-0.008
0.936	-10.748	-0.010
0.9365	-10.750	0.000
0.937	-10.750	-0.006
0.9375	-10.750	-0.010
0.938	-10.750	-0.019
0.9385	-10.750	-0.011
0.939	-10.750	0.004
0.9395	-10.750	-0.020
0.94	-10.750	-0.005
0.9405	-10.750	-0.009
0.941	-10.750	-0.011
0.9415	-10.750	-0.031
0.942	-10.750	-0.040
0.9425	-10.750	-0.031
0.943	-10.750	-0.036
0.9435	-10.750	-0.056
0.944	-10.750	-0.048
0.9445	-10.750	-0.056
0.945	-10.750	-0.067
0.9455	-10.750	-0.061
0.946	-10.750	-0.033
0.9465	-10.750	-0.020
0.947	-10.750	-0.026
0.9475	-10.750	-0.021
0.948	-10.750	-0.027
0.9485	-10.750	-0.021
0.949	-10.750	-0.026
0.9495	-10.750	-0.011
0.95	-10.750	-0.009
0.9505	-10.750	0.008
0.951	-10.750	-0.003
0.9515	-10.750	-0.018
0.952	-10.750	-0.010
0.9525	-10.750	-0.010
0.953	-10.750	-0.008
0.9535	-10.750	0.010
0.954	-10.750	0.008
0.9545	-10.750	-0.002
0.955	-10.750	-0.009
0.9555	-10.750	-0.005
0.956	-10.750	0.005
0.9565	-10.750	-0.018
0.957	-10.750	-0.012
0.9575	-10.750	-0.037
0.958	-10.750	-0.046
0.9585	-10.750	-0.056
0.959	-10.750	-0.064
0.9595	-10.750	-0.045
0.96	-10.750	-0.046
0.9605	-10.750	-0.030
0.961	-10.750	-0.028
0.9615	-10.750	-0.038
0.962	-10.750	-0.049
0.9625	-10.750	-0.048
0.963	-10.750	-0.033
0.9635	-10.750	-0.022
0.964	-10.750	-0.039
0.9645	-10.750	-0.049
0.965	-10.750	-0.033
0.9655	-10.750	-0.034
0.966	-10.750	-0.023
0.9665	-10.750	-0.010
0.967	-10.750	0.002
0.9675	-10.750	-0.005
0.968	-10.750	-0.020
0.9685	-10.750	-0.010
0.969	-10.750	0.003
0.9695	-10.750	0.018
0.97	-10.750	0.005
0.9705	-10.750	0.018
0.971	-10.750	0.012
0.9715	-10.750	0.003
0.972	-10.750	0.004
0.9725	-10.750	-0.007
0.973	-10.750	-0.016
0.9735	-10.750	-0.021
0.974	-10.750	-0.013
0.9745	-10.750	-0.026
0.975	-10.750	-0.028
0.9755	-10.750	-0.035
0.976	-10.750	-0.024
0.9765	-10.750	-0.019
0.977	-10.750	-0.047
0.9775	-10.750	-0.048
0.978	-10.750	-0.048
0.9785	-10.750	-0.040
0.979	-10.750	-0.046
0.9795	-10.750	-0.046
0.98	-10.750	-0.041
0.9805	-10.750	-0.045
0.981	-10.750	-0.041
0.9815	-10.750	-0.031
0.982	-10.750	-0.027
0.9825	-10.750	-0.011
0.983	-10.750	-0.010
0.9835	-10.750	0.003
0.984	-10.750	0.007
0.9845	-10.750	-0.013
0.985	-10.750	-0.013
0.9855	-10.750	-0.016
0.986	-10.750	-0.011
0.9865	-10.750	0.002
0.987	-10.750	0.003
0.9875	-10.750	0.005
0.988	-10.750	-0.010
0.9885	-10.750	-0.006
0.989	-10.750	-0.003
0.9895	-10.750	-0.006
0.99	-10.750	-0.018
0.9905	-10.750	-0.029
0.991	-10.750	-0.022
0.9915	-10.750	-0.037
0.992	-10.750	-0.051
0.9925	-10.752	-0.050
0.993	-10.752	-0.045
0.9935	-10.752	-0.045
0.994	-10.752	-0.068
0.9945	-10.752	-0.046
0.995	-10.752	-0.048
0.9955	-10.752	-0.029
0.996	-10.752	-0.025
0.9965	-10.752	-0.034
0.997	-10.752	-0.038
0.9975	-10.752	-0.040
0.998	-10.752	-0.032
0.9985	-10.752	-0.025
0.999	-10.752	-0.013
0.9995	-10.752	-0.010
1.0	-10.752	-0.005
1.0005	-10.752	0.006
1.001	-10.752	-0.000
1.0015	-10.752	-0.005
1.002	-10.752	-0.002
1.0025	-10.752	-0.004
1.003	-10.752	0.003
1.0035	-10.752	0.011
1.004	-10.752	0.002
1.0045	-10.752	-0.012
1.005	-10.752	-0.012
1.0055	-10.752	-0.005
1.006	-10.752	-0.001
1.0065	-10.752	0.002
1.007	-10.752	0.003
1.0075	-10.752	-0.015
1.008	-10.752	-0.024
1.0085	-10.752	-0.033
1.009	-10.752	-0.037
1.0095	-10.752	-0.045
1.01	-10.752	-0.047
1.0105	-10.752	-0.040
1.011	-10.752	-0.070
1.0115	-10.752	-0.067
1.012	-10.752	-0.047
1.0125	-10.752	-0.040
1.013	-10.752	-0.037
1.0135	-10.752	-0.040
1.014	-10.752	-0.030
1.0145	-10.752	-0.051
1.015	-10.752	-0.028
1.0155	-10.752	-0.020
1.016	-10.752	-0.009
1.0165	-10.752	-0.010
1.017	-10.752	-0.005
1.0175	-10.752	0.003
1.018	-10.752	-0.009
1.0185	-10.752	0.003
1.019	-10.752	0.000
1.0195	-10.752	-0.003
1.02	-10.752	0.003
1.0205	-10.752	0.006
1.021	-10.752	-0.006
1.0215	-10.752	-0.011
1.022	-10.752	-0.003
1.0225	-10.752	-0.004
1.023	-10.752	-0.003
1.0235	-10.752	-0.003
1.024	-10.752	-0.014
1.0245	-10.752	-0.020
1.025	-10.752	-0.023
1.0255	-10.752	-0.047
1.026	-10.752	-0.056
1.0265	-10.752	-0.047
1.027	-10.752	-0.053
1.0275	-10.752	-0.053
1.028	-10.752	-0.054
1.0285	-10.752	-0.050
1.029	-10.752	-0.049
1.0295	-10.752	-0.036
1.03	-10.752	-0.037
1.0305	-10.752	-0.043
1.031	-10.752	-0.030
1.0315	-10.752	-0.031
1.032	-10.752	-0.020
1.0325	-10.752	-0.014
1.033	-10.752	-0.010
1.0335	-10.752	-0.009
1.034	-10.752	0.000
1.0345	-10.752	-0.004
1.035	-10.752	-0.021
1.0355	-10.752	-0.008
1.036	-10.752	-0.013
1.0365	-10.752	-0.010
1.037	-10.752	-0.000
1.0375	-10.752	0.002
1.038	-10.752	-0.003
1.0385	-10.752	-0.006
1.039	-10.752	0.001
1.0395	-10.752	0.003
1.04	-10.752	-0.004
1.0405	-10.752	-0.011
1.041	-10.752	-0.037
1.0415	-10.752	-0.043
1.042	-10.752	-0.048
1.0425	-10.752	-0.044
1.043	-10.752	-0.043
1.0435	-10.752	-0.054
1.044	-10.752	-0.064
1.0445	-10.752	-0.063
1.045	-10.752	-0.059
1.0455	-10.752	-0.045
1.046	-10.752	-0.048
1.0465	-10.752	-0.040
1.047	-10.752	-0.051
1.0475	-10.752	-0.043
1.048	-10.752	-0.039
1.0485	-10.752	-0.045
1.049	-10.752	-0.029
1.0495	-10.752	-0.024
1.05	-10.752	0.001
1.0505	-10.752	0.030
1.051	-10.752	0.033
1.0515	-10.752	0.030
1.052	-10.752	0.020
1.0525	-10.752	0.002
1.053	-10.752	0.002
1.0535	-10.752	0.001
1.054	-10.752	-0.001
1.0545	-10.752	-0.006
1.055	-10.752	-0.010
1.0555	-10.752	-0.014
1.056	-10.752	-0.006
1.0565	-10.752	-0.002
1.057	-10.752	-0.006
1.0575	-10.752	-0.015
1.058	-10.752	-0.033
1.0585	-10.752	-0.034
1.059	-10.752	-0.037
1.0595	-10.753	-0.039
1.06	-10.753	-0.050
1.0605	-10.753	-0.050
1.061	-10.753	-0.065
1.0615	-10.753	-0.066
1.062	-10.753	-0.046
1.0625	-10.753	-0.037
1.063	-10.753	-0.035
1.0635	-10.753	-0.040
1.064	-10.753	-0.041
1.0645	-10.753	-0.019
1.065	-10.753	-0.001
1.0655	-10.753	-0.007
1.066	-10.753	-0.008
1.0665	-10.753	-0.012
1.067	-10.753	-0.005
1.0675	-10.753	-0.014
1.068	-10.753	-0.003
1.0685	-10.753	-0.007
1.069	-10.753	-0.021
1.0695	-10.753	-0.014
1.07	-10.753	-0.004
1.0705	-10.753	-0.008
1.071	-10.753	-0.008
1.0715	-10.753	-0.009
1.072	-10.753	-0.002
1.0725	-10.753	-0.011
1.073	-10.753	-0.003
1.0735	-10.753	-0.004
1.074	-10.753	-0.015
1.0745	-10.753	-0.011
1.075	-10.753	-0.025
1.0755	-10.753	-0.030
1.076	-10.753	-0.045
1.0765	-10.753	-0.035
1.077	-10.753	-0.035
1.0775	-10.753	-0.032
1.078	-10.753	-0.044
1.0785	-10.753	-0.049
1.079	-10.753	-0.044
1.0795	-10.753	-0.048
1.08	-10.753	-0.049
1.0805	-10.753	-0.043
1.081	-10.753	-0.043
1.0815	-10.753	-0.039
1.082	-10.753	-0.035
1.0825	-10.753	-0.028
1.083	-10.753	-0.029
1.0835	-10.753	-0.020
1.084	-10.753	-0.018
1.0845	-10.753	-0.019
1.085	-10.753	-0.013
1.0855	-10.753	0.004
1.086	-10.753	-0.002
1.0865	-10.753	0.007
1.087	-10.753	-0.001
1.0875	-10.753	-0.002
1.088	-10.753	0.010
1.0885	-10.753	0.011
1.089	-10.753	0.002
1.0895	-10.753	-0.009
1.09	-10.753	-0.006
1.0905	-10.753	-0.011
1.091	-10.753	-0.024
1.0915	-10.753	-0.033
1.092	-10.753	-0.042
1.0925	-10.753	-0.040
1.093	-10.753	-0.049
1.0935	-10.753	-0.033
1.094	-10.753	-0.042
1.0945	-10.753	-0.060
1.095	-10.753	-0.065
1.0955	-10.753	-0.066
1.096	-10.753	-0.040
1.0965	-10.753	-0.039
1.097	-10.753	-0.044
1.0975	-10.753	-0.046
1.098	-10.753	-0.042
1.0985	-10.753	-0.023
1.099	-10.753	-0.016
1.0995	-10.753	-0.006
1.1	-10.753	-0.006
1.1005	-10.753	0.003
1.101	-10.753	0.005
1.1015	-10.753	0.015
1.102	-10.753	0.016
1.1025	-10.753	-0.001
1.103	-10.753	0.004
1.1035	-10.753	0.011
1.104	-10.753	0.005
1.1045	-10.753	-0.013
1.105	-10.753	-0.010
1.1055	-10.753	-0.007
1.106	-10.753	-0.014
1.1065	-10.753	-0.016
1.107	-10.753	-0.002
1.1075	-10.753	-0.026
1.108	-10.753	-0.031
1.1085	-10.753	-0.042
1.109	-10.753	-0.041
1.1095	-10.753	-0.039
1.11	-10.753	-0.057
1.1105	-10.753	-0.046
1.111	-10.753	-0.043
1.1115	-10.753	-0.045
1.112	-10.753	-0.043
1.1125	-10.753	-0.048
1.113	-10.753	-0.034
1.1135	-10.753	-0.045
1.114	-10.753	-0.033
1.1145	-10.753	-0.031
1.115	-10.753	-0.013
1.1155	-10.753	-0.013
1.116	-10.753	-0.011
1.1165	-10.753	-0.006
1.117	-10.753	-0.001
1.1175	-10.753	-0.002
1.118	-10.753	-0.019
1.1185	-10.753	-0.011
1.119	-10.753	-0.010
1.1195	-10.753	-0.009
1.12	-10.753	0.000
1.1205	-10.753	-0.005
1.121	-10.753	-0.004
1.1215	-10.753	-0.019
1.122	-10.753	-0.010
1.1225	-10.753	-0.010
1.123	-10.753	-0.011
1.1235	-10.753	-0.006
1.124	-10.753	-0.001
1.1245	-10.753	-0.019
1.125	-10.753	-0.037
1.1255	-10.753	-0.049
1.126	-10.753	-0.040
1.1265	-10.753	-0.035
1.127	-10.753	-0.039
1.1275	-10.753	-0.044
1.128	-10.753	-0.058
1.1285	-10.753	-0.045
1.129	-10.753	-0.047
1.1295	-10.753	-0.033
1.13	-10.753	-0.033
1.1305	-10.753	-0.054
1.131	-10.753	-0.036
1.1315	-10.753	-0.026
1.132	-10.753	-0.022
1.1325	-10.753	-0.023
1.133	-10.753	-0.022
1.1335	-10.753	-0.009
1.134	-10.753	-0.017
1.1345	-10.753	-0.008
1.135	-10.753	-0.005
1.1355	-10.753	-0.007
1.136	-10.753	-0.010
1.1365	-10.753	0.003
1.137	-10.753	0.008
1.1375	-10.753	-0.002
1.138	-10.753	-0.002
1.1385	-10.753	-0.007
1.139	-10.753	0.000
1.1395	-10.753	-0.002
1.14	-10.753	-0.000
1.1405	-10.753	0.006
1.141	-10.753	-0.007
1.1415	-10.753	-0.032
1.142	-10.753	-0.036
1.1425	-10.753	-0.040
1.143	-10.753	-0.032
1.1435	-10.753	-0.044
1.144	-10.753	-0.046
1.1445	-10.753	-0.055
1.145	-10.753	-0.063
1.1455	-10.753	-0.056
1.146	-10.753	-0.038
1.1465	-10.753	-0.037
1.147	-10.753	-0.047
1.1475	-10.753	-0.046
1.148	-10.753	-0.030
1.1485	-10.753	-0.025
1.149	-10.753	-0.023
1.1495	-10.753	-0.016
1.15	-10.753	-0.013
1.1505	-10.753	0.002
1.151	-10.753	-0.009
1.1515	-10.753	-0.003
1.152	-10.753	0.004
1.1525	-10.753	-0.006
1.153	-10.753	-0.004
1.1535	-10.753	0.009
1.154	-10.753	0.010
1.1545	-10.753	-0.004
1.155	-10.753	0.007
1.1555	-10.753	0.005
1.156	-10.753	-0.011
1.1565	-10.753	-0.014
1.157	-10.753	-0.022
1.1575	-10.753	-0.018
1.158	-10.753	-0.029
1.1585	-10.753	-0.023
1.159	-10.753	-0.032
1.1595	-10.753	-0.027
1.16	-10.753	-0.040
1.1605	-10.753	-0.036
1.161	-10.753	-0.043
1.1615	-10.753	-0.068
1.162	-10.753	-0.076
1.1625	-10.753	-0.055
1.163	-10.753	-0.040
1.1635	-10.753	-0.035
1.164	-10.753	-0.031
1.1645	-10.753	-0.022
1.165	-10.753	-0.011
1.1655	-10.753	-0.017
1.166	-10.753	-0.024
1.1665	-10.753	-0.010
1.167	-10.753	-0.004
1.1675	-10.753	-0.006
1.168	-10.753	-0.027
1.1685	-10.753	-0.008
1.169	-10.753	-0.017
1.1695	-10.753	-0.001
1.17	-10.753	0.001
1.1705	-10.753	0.001
1.171	-10.753	-0.013
1.1715	-10.753	-0.030
1.172	-10.753	-0.014
1.1725	-10.753	-0.006
1.173	-10.753	-0.003
1.1735	-10.753	0.006
1.174	-10.753	-0.012
1.1745	-10.753	-0.024
1.175	-10.753	-0.024
1.1755	-10.753	-0.037
1.176	-10.753	-0.019
1.1765	-10.753	-0.020
1.177	-10.753	-0.037
1.1775	-10.753	-0.042
1.178	-10.753	-0.050
1.1785	-10.753	-0.060
1.179	-10.753	-0.057
1.1795	-10.753	-0.050
1.18	-10.753	-0.043
1.1805	-10.753	-0.030
1.181	-10.753	-0.030
1.1815	-10.753	-0.018
1.182	-10.753	-0.014
1.1825	-10.753	-0.015
1.183	-10.753	-0.006
1.1835	-10.753	0.006
1.184	-10.753	-0.000
1.1845	-10.753	0.002
1.185	-10.753	-0.005
1.1855	-10.753	0.001
1.186	-10.753	0.006
1.1865	-10.753	0.007
1.187	-10.753	0.008
1.1875	-10.753	0.003
1.188	-10.753	-0.014
1.1885	-10.753	-0.023
1.189	-10.753	-0.008
1.1895	-10.753	-0.020
1.19	-10.753	-0.015
1.1905	-10.753	-0.019
1.191	-10.753	-0.025
1.1915	-10.753	-0.029
1.192	-10.753	-0.055
1.1925	-10.755	-0.045
1.193	-10.755	-0.045
1.1935	-10.755	-0.039
1.194	-10.755	-0.060
1.1945	-10.755	-0.051
1.195	-10.755	-0.046
1.1955	-10.755	-0.044
1.196	-10.755	-0.034
1.1965	-10.755	-0.026
1.197	-10.755	-0.036
1.1975	-10.755	-0.046
1.198	-10.755	-0.040
1.1985	-10.755	-0.032
1.199	-10.755	-0.013
1.1995	-10.755	-0.003
1.2	-10.755	-0.001
1.2005	-10.755	-0.010
1.201	-10.755	-0.013
1.2015	-10.755	-0.017
1.202	-10.755	-0.019
1.2025	-10.755	-0.011
1.203	-10.755	-0.002
1.2035	-10.755	0.000
1.204	-10.755	-0.010
1.2045	-10.755	-0.025
1.205	-10.755	-0.020
1.2055	-10.755	-0.026
1.206	-10.755	-0.011
1.2065	-10.755	-0.025
1.207	-10.755	-0.004
1.2075	-10.755	-0.011
1.208	-10.755	-0.016
1.2085	-10.755	-0.052
1.209	-10.755	-0.066
1.2095	-10.755	-0.048
1.21	-10.755	-0.044
1.2105	-10.755	-0.044
1.211	-10.755	-0.047
1.2115	-10.755	-0.055
1.212	-10.755	-0.044
1.2125	-10.755	-0.050
1.213	-10.755	-0.039
1.2135	-10.755	-0.031
1.214	-10.755	-0.035
1.2145	-10.755	-0.033
1.215	-10.755	-0.022
1.2155	-10.755	-0.020
1.216	-10.755	-0.020
1.2165	-10.755	-0.016
1.217	-10.755	0.005
1.2175	-10.755	-0.000
1.218	-10.755	-0.013
1.2185	-10.755	-0.007
1.219	-10.755	-0.017
1.2195	-10.755	-0.004
1.22	-10.755	0.004
1.2205	-10.755	0.003
1.221	-10.755	-0.012
1.2215	-10.755	-0.013
1.222	-10.755	-0.006
1.2225	-10.755	-0.004
1.223	-10.755	-0.005
1.2235	-10.755	-0.009
1.224	-10.755	-0.015
1.2245	-10.755	-0.028
1.225	-10.755	-0.041
1.2255	-10.755	-0.048
1.226	-10.755	-0.050
1.2265	-10.755	-0.031
1.227	-10.755	-0.036
1.2275	-10.755	-0.037
1.228	-10.755	-0.040
1.2285	-10.755	-0.043
1.229	-10.755	-0.040
1.2295	-10.755	-0.051
1.23	-10.755	-0.045
1.2305	-10.755	-0.051
1.231	-10.755	-0.034
1.2315	-10.755	-0.022
1.232	-10.755	-0.025
1.2325	-10.755	-0.008
1.233	-10.755	-0.013
1.2335	-10.755	0.004
1.234	-10.755	0.011
1.2345	-10.755	0.009
1.235	-10.755	0.011
1.2355	-10.755	-0.002
1.236	-10.755	0.002
1.2365	-10.755	0.010
1.237	-10.755	0.003
1.2375	-10.755	0.001
1.238	-10.755	-0.005
1.2385	-10.755	-0.006
1.239	-10.755	0.003
1.2395	-10.755	0.013
1.24	-10.755	0.015
1.2405	-10.755	-0.003
1.241	-10.755	-0.022
1.2415	-10.755	-0.038
1.242	-10.755	-0.050
1.2425	-10.755	-0.052
1.243	-10.755	-0.046
1.2435	-10.755	-0.039
1.244	-10.755	-0.047
1.2445	-10.755	-0.055
1.245	-10.755	-0.051
1.2455	-10.755	-0.059
1.246	-10.755	-0.038
1.2465	-10.755	-0.048
1.247	-10.755	-0.034
1.2475	-10.755	-0.033
1.248	-10.755	-0.023
1.2485	-10.755	-0.029
1.249	-10.755	-0.024
1.2495	-10.755	-0.011
1.25	-10.755	-0.012
1.2505	-10.755	0.015
1.251	-10.755	-0.005
1.2515	-10.755	-0.017
1.252	-10.755	-0.014
1.2525	-10.755	-0.017
1.253	-10.755	-0.007
1.2535	-10.755	0.003
1.254	-10.755	0.011
1.2545	-10.755	-0.005
1.255	-10.755	-0.010
1.2555	-10.755	-0.016
1.256	-10.755	-0.013
1.2565	-10.755	0.001
1.257	-10.755	-0.001
1.2575	-10.755	-0.002
1.258	-10.755	-0.013
1.2585	-10.755	-0.025
1.259	-10.755	-0.037
1.2595	-10.755	-0.052
1.26	-10.755	-0.049
1.2605	-10.755	-0.044
1.261	-10.755	-0.050
1.2615	-10.755	-0.058
1.262	-10.755	-0.042
1.2625	-10.755	-0.035
1.263	-10.755	-0.021
1.2635	-10.755	-0.028
1.264	-10.755	-0.039
1.2645	-10.755	-0.029
1.265	-10.755	-0.013
1.2655	-10.755	-0.012
1.266	-10.755	-0.013
1.2665	-10.755	-0.009
1.267	-10.755	-0.014
1.2675	-10.755	0.002
1.268	-10.755	-0.007
1.2685	-10.755	-0.008
1.269	-10.755	-0.015
1.2695	-10.755	-0.010
1.27	-10.755	-0.019
1.2705	-10.755	-0.021
1.271	-10.755	-0.017
1.2715	-10.755	-0.014
1.272	-10.755	0.000
1.2725	-10.755	-0.002
1.273	-10.755	-0.005
1.2735	-10.755	0.010
1.274	-10.755	-0.012
1.2745	-10.755	-0.015
1.275	-10.755	-0.033
1.2755	-10.755	-0.052
1.276	-10.755	-0.050
1.2765	-10.755	-0.050
1.277	-10.755	-0.052
1.2775	-10.755	-0.040
1.278	-10.755	-0.041
1.2785	-10.755	-0.040
1.279	-10.755	-0.040
1.2795	-10.755	-0.049
1.28	-10.755	-0.057
1.2805	-10.755	-0.048
1.281	-10.755	-0.044
1.2815	-10.755	-0.031
1.282	-10.755	-0.028
1.2825	-10.755	-0.025
1.283	-10.755	-0.012
1.2835	-10.755	0.000
1.284	-10.755	0.004
1.2845	-10.755	0.012
1.285	-10.755	0.007
1.2855	-10.755	-0.004
1.286	-10.755	0.002
1.2865	-10.755	-0.005
1.287	-10.755	-0.008
1.2875	-10.755	-0.018
1.288	-10.755	-0.011
1.2885	-10.755	-0.015
1.289	-10.755	-0.006
1.2895	-10.755	-0.009
1.29	-10.755	-0.012
1.2905	-10.755	-0.014
1.291	-10.755	-0.036
1.2915	-10.755	-0.032
1.292	-10.755	-0.047
1.2925	-10.755	-0.048
1.293	-10.755	-0.043
1.2935	-10.755	-0.050
1.294	-10.755	-0.041
1.2945	-10.755	-0.060
1.295	-10.755	-0.064
1.2955	-10.755	-0.045
1.296	-10.755	-0.041
1.2965	-10.755	-0.048
1.297	-10.755	-0.037
1.2975	-10.755	-0.036
1.298	-10.755	-0.029
1.2985	-10.755	-0.015
1.299	-10.755	-0.003
1.2995	-10.755	-0.006
1.3	-10.755	-0.004
1.3005	-10.755	-0.001
1.301	-10.755	-0.012
1.3015	-10.755	-0.005
1.302	-10.755	-0.003
1.3025	-10.755	-0.013
1.303	-10.755	-0.003
1.3035	-10.755	-0.001
1.304	-10.755	0.004
1.3045	-10.755	-0.008
1.305	-10.755	-0.001
1.3055	-10.755	-0.000
1.306	-10.755	-0.007
1.3065	-10.755	-0.008
1.307	-10.755	-0.013
1.3075	-10.755	-0.014
1.308	-10.755	-0.031
1.3085	-10.755	-0.048
1.309	-10.755	-0.058
1.3095	-10.755	-0.048
1.31	-10.755	-0.046
1.3105	-10.755	-0.054
1.311	-10.755	-0.051
1.3115	-10.755	-0.073
1.312	-10.755	-0.058
1.3125	-10.755	-0.036
1.313	-10.755	-0.032
1.3135	-10.755	-0.044
1.314	-10.755	-0.041
1.3145	-10.755	-0.039
1.315	-10.755	-0.043
1.3155	-10.755	-0.022
1.316	-10.755	-0.012
1.3165	-10.755	-0.009
1.317	-10.755	-0.006
1.3175	-10.755	-0.008
1.318	-10.755	0.007
1.3185	-10.755	0.018
1.319	-10.755	-0.002
1.3195	-10.755	-0.001
1.32	-10.755	0.007
1.3205	-10.755	0.019
1.321	-10.755	-0.005
1.3215	-10.755	-0.003
1.322	-10.755	-0.005
1.3225	-10.755	-0.007
1.323	-10.755	-0.017
1.3235	-10.755	-0.010
1.324	-10.755	-0.014
1.3245	-10.755	-0.020
1.325	-10.755	-0.026
1.3255	-10.755	-0.030
1.326	-10.755	-0.045
1.3265	-10.755	-0.050
1.327	-10.755	-0.048
1.3275	-10.755	-0.043
1.328	-10.755	-0.050
1.3285	-10.755	-0.066
1.329	-10.755	-0.045
1.3295	-10.755	-0.036
1.33	-10.755	-0.044
1.3305	-10.755	-0.050
1.331	-10.755	-0.047
1.3315	-10.755	-0.037
1.332	-10.755	-0.033
1.3325	-10.755	-0.023
1.333	-10.755	-0.011
1.3335	-10.755	-0.006
1.334	-10.755	-0.010
1.3345	-10.755	-0.006
1.335	-10.755	-0.007
1.3355	-10.755	-0.015
1.336	-10.755	0.002
1.3365	-10.755	0.000
1.337	-10.755	-0.002
1.3375	-10.755	-0.000
1.338	-10.755	-0.007
1.3385	-10.755	-0.006
1.339	-10.755	-0.006
1.3395	-10.755	-0.010
1.34	-10.755	-0.009
1.3405	-10.755	-0.017
1.341	-10.755	-0.030
1.3415	-10.756	-0.027
1.342	-10.756	-0.035
1.3425	-10.756	-0.035
1.343	-10.756	-0.041
1.3435	-10.756	-0.022
1.344	-10.756	-0.044
1.3445	-10.756	-0.044
1.345	-10.756	-0.045
1.3455	-10.756	-0.046
1.346	-10.756	-0.028
1.3465	-10.756	-0.038
1.347	-10.756	-0.042
1.3475	-10.756	-0.034
1.348	-10.756	-0.032
1.3485	-10.756	-0.022
1.349	-10.756	-0.026
1.3495	-10.756	-0.005
1.35	-10.756	-0.004
1.3505	-10.756	0.007
1.351	-10.756	-0.008
1.3515	-10.756	-0.009
1.352	-10.756	-0.006
1.3525	-10.756	-0.008
1.353	-10.756	0.012
1.3535	-10.756	0.002
1.354	-10.756	0.006
1.3545	-10.756	-0.017
1.355	-10.756	-0.029
1.3555	-10.756	-0.019
1.356	-10.756	-0.018
1.3565	-10.756	-0.024
1.357	-10.756	-0.026
1.3575	-10.756	-0.034
1.358	-10.756	-0.040
1.3585	-10.756	-0.048
1.359	-10.756	-0.048
1.3595	-10.756	-0.038
1.36	-10.756	-0.042
1.3605	-10.756	-0.045
1.361	-10.756	-0.052
1.3615	-10.756	-0.056
1.362	-10.756	-0.052
1.3625	-10.756	-0.032
1.363	-10.756	-0.021
1.3635	-10.756	-0.034
1.364	-10.756	-0.030
1.3645	-10.756	-0.028
1.365	-10.756	-0.026
1.3655	-10.756	-0.020
1.366	-10.756	-0.015
1.3665	-10.756	-0.005
1.367	-10.756	0.008
1.3675	-10.756	-0.004
1.368	-10.756	-0.011
1.3685	-10.756	-0.014
1.369	-10.756	-0.013
1.3695	-10.756	-0.014
1.37	-10.756	0.007
1.3705	-10.756	0.011
1.371	-10.756	-0.007
1.3715	-10.756	-0.001
1.372	-10.756	-0.003
1.3725	-10.756	-0.008
1.373	-10.756	-0.022
1.3735	-10.756	-0.009
1.374	-10.756	-0.010
1.3745	-10.756	-0.019
1.375	-10.756	-0.027
1.3755	-10.756	-0.036
1.376	-10.756	-0.015
1.3765	-10.756	-0.018
1.377	-10.756	-0.040
1.3775	-10.756	-0.051
1.378	-10.756	-0.056
1.3785	-10.756	-0.074
1.379	-10.756	-0.067
1.3795	-10.756	-0.039
1.38	-10.756	-0.034
1.3805	-10.756	-0.042
1.381	-10.756	-0.032
1.3815	-10.756	-0.026
1.382	-10.756	-0.027
1.3825	-10.756	-0.023
1.383	-10.756	-0.015
1.3835	-10.756	-0.011
1.384	-10.756	-0.017
1.3845	-10.756	-0.020
1.385	-10.756	-0.029
1.3855	-10.756	-0.025
1.386	-10.756	-0.013
1.3865	-10.756	-0.007
1.387	-10.756	0.012
1.3875	-10.756	-0.001
1.388	-10.756	-0.008
1.3885	-10.756	-0.005
1.389	-10.756	0.000
1.3895	-10.756	-0.002
1.39	-10.756	-0.012
1.3905	-10.756	-0.008
1.391	-10.756	-0.025
1.3915	-10.756	-0.027
1.392	-10.756	-0.042
1.3925	-10.756	-0.028
1.393	-10.756	-0.037
1.3935	-10.756	-0.041
1.394	-10.756	-0.032
1.3945	-10.756	-0.040
1.395	-10.756	-0.058
1.3955	-10.756	-0.063
1.396	-10.756	-0.044
1.3965	-10.756	-0.023
1.397	-10.756	-0.035
1.3975	-10.756	-0.034
1.398	-10.756	-0.030
1.3985	-10.756	-0.033
1.399	-10.756	-0.023
1.3995	-10.756	-0.016
1.4	-10.756	0.002
1.4005	-10.756	0.021
1.401	-10.756	0.007
1.4015	-10.756	-0.003
1.402	-10.756	-0.019
1.4025	-10.756	-0.009
1.403	-10.756	-0.003
1.4035	-10.756	-0.002
1.404	-10.756	0.009
1.4045	-10.756	-0.002
1.405	-10.756	-0.007
1.4055	-10.756	-0.001
1.406	-10.756	-0.015
1.4065	-10.756	-0.018
1.407	-10.756	-0.026
1.4075	-10.756	-0.019
1.408	-10.756	-0.030
1.4085	-10.756	-0.035
1.409	-10.756	-0.040
1.4095	-10.756	-0.036
1.41	-10.756	-0.033
1.4105	-10.756	-0.060
1.411	-10.756	-0.058
1.4115	-10.756	-0.060
1.412	-10.756	-0.061
1.4125	-10.756	-0.050
1.413	-10.756	-0.040
1.4135	-10.756	-0.033
1.414	-10.756	-0.035
1.4145	-10.756	-0.026
1.415	-10.756	-0.022
1.4155	-10.756	-0.021
1.416	-10.756	-0.014
1.4165	-10.756	-0.016
1.417	-10.756	-0.001
1.4175	-10.756	-0.001
1.418	-10.756	-0.005
1.4185	-10.756	-0.002
1.419	-10.756	0.000
1.4195	-10.756	0.008
1.42	-10.756	0.001
1.4205	-10.756	0.003
1.421	-10.756	-0.005
1.4215	-10.756	-0.003
1.422	-10.756	0.001
1.4225	-10.756	-0.002
1.423	-10.756	-0.003
1.4235	-10.756	-0.016
1.424	-10.756	-0.028
1.4245	-10.756	-0.031
1.425	-10.756	-0.049
1.4255	-10.756	-0.037
1.426	-10.756	-0.032
1.4265	-10.756	-0.033
1.427	-10.756	-0.039
1.4275	-10.756	-0.062
1.428	-10.756	-0.046
1.4285	-10.756	-0.056
1.429	-10.756	-0.048
1.4295	-10.756	-0.037
1.43	-10.756	-0.034
1.4305	-10.756	-0.039
1.431	-10.756	-0.051
1.4315	-10.756	-0.029
1.432	-10.756	-0.017
1.4325	-10.756	-0.023
1.433	-10.756	-0.022
1.4335	-10.756	-0.015
1.434	-10.756	-0.012
1.4345	-10.756	-0.020
1.435	-10.756	-0.006
1.4355	-10.756	-0.011
1.436	-10.756	0.003
1.4365	-10.756	0.009
1.437	-10.756	0.015
1.4375	-10.756	0.001
1.438	-10.756	-0.004
1.4385	-10.756	-0.013
1.439	-10.756	-0.010
1.4395	-10.756	-0.010
1.44	-10.756	-0.008
1.4405	-10.756	-0.009
1.441	-10.756	-0.006
1.4415	-10.756	-0.014
1.442	-10.756	-0.044
1.4425	-10.756	-0.042
1.443	-10.756	-0.043
1.4435	-10.756	-0.051
1.444	-10.756	-0.056
1.4445	-10.756	-0.063
1.445	-10.756	-0.056
1.4455	-10.758	-0.054
1.446	-10.758	-0.041
1.4465	-10.758	-0.050
1.447	-10.758	-0.051
1.4475	-10.758	-0.049
1.448	-10.758	-0.045
1.4485	-10.758	-0.035
1.449	-10.758	-0.022
1.4495	-10.758	-0.015
1.45	-10.758	-0.005
1.4505	-10.758	0.014
1.451	-10.758	0.007
1.4515	-10.758	0.005
1.452	-10.758	0.005
1.4525	-10.758	-0.004
1.453	-10.758	0.005
1.4535	-10.758	0.003
1.454	-10.758	-0.002
1.4545	-10.758	-0.001
1.455	-10.758	-0.014
1.4555	-10.758	-0.017
1.456	-10.758	-0.018
1.4565	-10.758	-0.019
1.457	-10.758	-0.018
1.4575	-10.758	-0.036
1.458	-10.758	-0.032
1.4585	-10.758	-0.033
1.459	-10.758	-0.033
1.4595	-10.758	-0.029
1.46	-10.758	-0.032
1.4605	-10.758	-0.040
1.461	-10.758	-0.048
1.4615	-10.758	-0.043
1.462	-10.758	-0.049
1.4625	-10.758	-0.044
1.463	-10.758	-0.030
1.4635	-10.758	-0.038
1.464	-10.758	-0.044
1.4645	-10.758	-0.039
1.465	-10.758	-0.046
1.4655	-10.758	-0.022
1.466	-10.758	-0.017
1.4665	-10.758	-0.005
1.467	-10.758	0.006
1.4675	-10.758	-0.000
1.468	-10.758	-0.013
1.4685	-10.758	-0.019
1.469	-10.758	-0.008
1.4695	-10.758	-0.005
1.47	-10.758	-0.002
1.4705	-10.758	-0.002
1.471	-10.758	-0.002
1.4715	-10.758	-0.000
1.472	-10.758	-0.001
1.4725	-10.758	-0.014
1.473	-10.758	-0.012
1.4735	-10.758	-0.014
1.474	-10.758	-0.019
1.4745	-10.758	-0.030
1.475	-10.758	-0.031
1.4755	-10.758	-0.049
1.476	-10.758	-0.049
1.4765	-10.758	-0.049
1.477	-10.758	-0.055
1.4775	-10.758	-0.052
1.478	-10.758	-0.059
1.4785	-10.758	-0.045
1.479	-10.758	-0.039
1.4795	-10.758	-0.028
1.48	-10.758	-0.021
1.4805	-10.758	-0.031
1.481	-10.758	-0.029
1.4815	-10.758	-0.033
1.482	-10.758	-0.022
1.4825	-10.758	-0.013
1.483	-10.758	-0.013
1.4835	-10.758	-0.007
1.484	-10.758	-0.010
1.4845	-10.758	-0.006
1.485	-10.758	-0.011
1.4855	-10.758	-0.034
1.486	-10.758	-0.009
1.4865	-10.758	-0.002
1.487	-10.758	-0.004
1.4875	-10.758	-0.007
1.488	-10.758	-0.007
1.4885	-10.758	0.004
1.489	-10.758	-0.006
1.4895	-10.758	-0.005
1.49	-10.758	-0.013
1.4905	-10.758	-0.015
1.491	-10.758	-0.031
1.4915	-10.758	-0.026
1.492	-10.758	-0.036
1.4925	-10.758	-0.043
1.493	-10.758	-0.035
1.4935	-10.758	-0.040
1.494	-10.758	-0.039
1.4945	-10.758	-0.058
1.495	-10.758	-0.065
1.4955	-10.758	-0.051
1.496	-10.758	-0.044
1.4965	-10.758	-0.035
1.497	-10.758	-0.037
1.4975	-10.758	-0.040
1.498	-10.758	-0.024
1.4985	-10.758	-0.014
1.499	-10.758	-0.007
1.4995	-10.758	-0.005
1.5	-10.758	-0.004
1.5005	-10.758	0.004
1.501	-10.758	-0.006
1.5015	-10.758	-0.006
1.502	-10.758	-0.017
1.5025	-10.758	-0.015
1.503	-10.758	-0.003
1.5035	-10.758	-0.005
1.504	-10.758	-0.010
1.5045	-10.758	-0.017
1.505	-10.758	-0.011
1.5055	-10.758	-0.019
1.506	-10.758	-0.017
1.5065	-10.758	-0.004
1.507	-10.758	-0.001
1.5075	-10.758	-0.028
1.508	-10.758	-0.039
1.5085	-10.758	-0.043
1.509	-10.758	-0.047
1.5095	-10.758	-0.053
1.51	-10.758	-0.037
1.5105	-10.758	-0.041
1.511	-10.758	-0.053
1.5115	-10.758	-0.059
1.512	-10.758	-0.048
1.5125	-10.758	-0.040
1.513	-10.758	-0.036
1.5135	-10.758	-0.027
1.514	-10.758	-0.029
1.5145	-10.758	-0.025
1.515	-10.758	-0.029
1.5155	-10.758	-0.019
1.516	-10.758	-0.010
1.5165	-10.758	-0.010
1.517	-10.758	-0.000
1.5175	-10.758	-0.007
1.518	-10.758	-0.017
1.5185	-10.758	-0.012
1.519	-10.758	-0.018
1.5195	-10.758	-0.007
1.52	-10.758	-0.005
1.5205	-10.758	-0.009
1.521	-10.758	-0.024
1.5215	-10.758	-0.031
1.522	-10.758	-0.024
1.5225	-10.758	-0.012
1.523	-10.758	-0.016
1.5235	-10.758	0.011
1.524	-10.758	-0.001
1.5245	-10.758	0.003
1.525	-10.758	-0.031
1.5255	-10.758	-0.037
1.526	-10.758	-0.035
1.5265	-10.758	-0.046
1.527	-10.758	-0.063
1.5275	-10.758	-0.071
1.528	-10.758	-0.067
1.5285	-10.758	-0.080
1.529	-10.758	-0.059
1.5295	-10.758	-0.041
1.53	-10.758	-0.041
1.5305	-10.758	-0.029
1.531	-10.758	-0.028
1.5315	-10.758	-0.030
1.532	-10.758	-0.020
1.5325	-10.758	-0.022
1.533	-10.758	-0.004
1.5335	-10.758	0.004
1.534	-10.758	0.011
1.5345	-10.758	0.010
1.535	-10.758	0.012
1.5355	-10.758	0.000
1.536	-10.758	0.020
1.5365	-10.758	0.016
1.537	-10.758	0.006
1.5375	-10.758	-0.012
1.538	-10.758	-0.010
1.5385	-10.758	-0.015
1.539	-10.758	-0.010
1.5395	-10.758	-0.013
1.54	-10.758	-0.004
1.5405	-10.758	-0.001
1.541	-10.758	-0.010
1.5415	-10.758	-0.025
1.542	-10.758	-0.034
1.5425	-10.758	-0.038
1.543	-10.758	-0.046
1.5435	-10.758	-0.051
1.544	-10.758	-0.042
1.5445	-10.758	-0.052
1.545	-10.758	-0.047
1.5455	-10.758	-0.048
1.546	-10.758	-0.038
1.5465	-10.758	-0.033
1.547	-10.758	-0.051
1.5475	-10.758	-0.036
1.548	-10.758	-0.039
1.5485	-10.758	-0.032
1.549	-10.758	-0.024
1.5495	-10.758	-0.009
1.55	-10.758	-0.004
1.5505	-10.758	-0.010
1.551	-10.758	-0.002
1.5515	-10.758	0.004
1.552	-10.758	0.003
1.5525	-10.758	0.006
1.553	-10.758	0.003
1.5535	-10.758	0.006
1.554	-10.758	-0.012
1.5545	-10.758	-0.016
1.555	-10.758	-0.020
1.5555	-10.758	-0.009
1.556	-10.758	-0.010
1.5565	-10.758	-0.000
1.557	-10.758	-0.006
1.5575	-10.758	-0.007
1.558	-10.758	-0.026
1.5585	-10.758	-0.045
1.559	-10.758	-0.047
1.5595	-10.758	-0.037
1.56	-10.758	-0.046
1.5605	-10.758	-0.060
1.561	-10.758	-0.058
1.5615	-10.758	-0.057
1.562	-10.758	-0.055
1.5625	-10.758	-0.043
1.563	-10.758	-0.031
1.5635	-10.758	-0.029
1.564	-10.758	-0.042
1.5645	-10.758	-0.031
1.565	-10.758	-0.033
1.5655	-10.758	-0.025
1.566	-10.758	-0.023
1.5665	-10.758	-0.008
1.567	-10.758	-0.005
1.5675	-10.758	-0.023
1.568	-10.758	-0.007
1.5685	-10.758	-0.006
1.569	-10.758	-0.021
1.5695	-10.758	0.002
1.57	-10.758	0.009
1.5705	-10.758	0.007
1.571	-10.758	-0.004
1.5715	-10.758	-0.015
1.572	-10.758	-0.011
1.5725	-10.758	0.001
1.573	-10.758	-0.010
1.5735	-10.758	-0.009
1.574	-10.758	-0.014
1.5745	-10.758	-0.034
1.575	-10.758	-0.036
1.5755	-10.758	-0.040
1.576	-10.758	-0.040
1.5765	-10.758	-0.040
1.577	-10.758	-0.041
1.5775	-10.758	-0.050
1.578	-10.758	-0.058
1.5785	-10.758	-0.065
1.579	-10.758	-0.054
1.5795	-10.758	-0.031
1.58	-10.758	-0.028
1.5805	-10.758	-0.034
1.581	-10.758	-0.036
1.5815	-10.758	-0.023
1.582	-10.758	-0.015
1.5825	-10.758	-0.005
1.583	-10.758	0.006
1.5835	-10.758	0.004
1.584	-10.758	-0.010
1.5845	-10.758	-0.031
1.585	-10.758	-0.019
1.5855	-10.758	-0.013
1.586	-10.758	-0.005
1.5865	-10.758	0.014
1.587	-10.758	0.019
1.5875	-10.758	0.006
1.588	-10.758	-0.010
1.5885	-10.758	-0.005
1.589	-10.758	0.005
1.5895	-10.758	-0.003
1.59	-10.758	-0.004
1.5905	-10.758	-0.015
1.591	-10.758	-0.019
1.5915	-10.758	-0.024
1.592	-10.758	-0.038
1.5925	-10.758	-0.039
1.593	-10.758	-0.043
1.5935	-10.758	-0.049
1.594	-10.758	-0.038
1.5945	-10.758	-0.042
1.595	-10.758	-0.061
1.5955	-10.758	-0.054
1.596	-10.758	-0.043
1.5965	-10.758	-0.044
1.597	-10.758	-0.036
1.5975	-10.758	-0.026
1.598	-10.758	-0.016
1.5985	-10.758	-0.010
1.599	-10.758	-0.008
1.5995	-10.758	-0.013
1.6	-10.758	-0.003
1.6005	-10.758	0.013
1.601	-10.758	-0.003
1.6015	-10.758	-0.017
1.602	-10.758	-0.008
1.6025	-10.758	-0.002
1.603	-10.758	-0.009
1.6035	-10.759	-0.015
1.604	-10.759	-0.010
1.6045	-10.759	-0.013
1.605	-10.759	-0.023
1.6055	-10.759	-0.012
1.606	-10.759	-0.007
1.6065	-10.759	-0.015
1.607	-10.759	-0.014
1.6075	-10.759	-0.031
1.608	-10.759	-0.043
1.6085	-10.759	-0.058
1.609	-10.759	-0.046
1.6095	-10.759	-0.036
1.61	-10.759	-0.037
1.6105	-10.759	-0.043
1.611	-10.759	-0.050
1.6115	-10.759	-0.041
1.612	-10.759	-0.043
1.6125	-10.759	-0.030
1.613	-10.759	-0.034
1.6135	-10.759	-0.047
1.614	-10.759	-0.046
1.6145	-10.759	-0.036
1.615	-10.759	-0.024
1.6155	-10.759	-0.022
1.616	-10.759	-0.018
1.6165	-10.759	-0.004
1.617	-10.759	0.004
1.6175	-10.759	0.004
1.618	-10.759	0.003
1.6185	-10.759	-0.009
1.619	-10.759	0.003
1.6195	-10.759	0.002
1.62	-10.759	0.003
1.6205	-10.759	0.002
1.621	-10.759	-0.010
1.6215	-10.759	-0.014
1.622	-10.759	-0.019
1.6225	-10.759	-0.001
1.623	-10.759	-0.004
1.6235	-10.759	-0.017
1.624	-10.759	-0.019
1.6245	-10.759	-0.029
1.625	-10.759	-0.032
1.6255	-10.759	-0.046
1.626	-10.759	-0.045
1.6265	-10.759	-0.043
1.627	-10.759	-0.044
1.6275	-10.759	-0.051
1.628	-10.759	-0.059
1.6285	-10.759	-0.048
1.629	-10.759	-0.056
1.6295	-10.759	-0.030
1.63	-10.759	-0.037
1.6305	-10.759	-0.023
1.631	-10.759	-0.030
1.6315	-10.759	-0.013
1.632	-10.759	-0.013
1.6325	-10.759	-0.017
1.633	-10.759	-0.009
1.6335	-10.759	-0.001
1.634	-10.759	-0.005
1.6345	-10.759	-0.008
1.635	-10.759	-0.006
1.6355	-10.759	-0.006
1.636	-10.759	0.002
1.6365	-10.759	0.009
1.637	-10.759	0.001
1.6375	-10.759	-0.005
1.638	-10.759	-0.002
1.6385	-10.759	-0.005
1.639	-10.759	-0.006
1.6395	-10.759	-0.000
1.64	-10.759	-0.015
1.6405	-10.759	-0.010
1.641	-10.759	-0.023
1.6415	-10.759	-0.034
1.642	-10.759	-0.048
1.6425	-10.759	-0.058
1.643	-10.759	-0.044
1.6435	-10.759	-0.047
1.644	-10.759	-0.049
1.6445	-10.759	-0.050
1.645	-10.759	-0.048
1.6455	-10.759	-0.032
1.646	-10.759	-0.042
1.6465	-10.759	-0.036
1.647	-10.759	-0.042
1.6475	-10.759	-0.044
1.648	-10.759	-0.047
1.6485	-10.759	-0.027
1.649	-10.759	-0.012
1.6495	-10.759	-0.019
1.65	-10.759	-0.013
1.6505	-10.759	-0.010
1.651	-10.759	-0.012
1.6515	-10.759	-0.006
1.652	-10.759	-0.009
1.6525	-10.759	-0.001
1.653	-10.759	0.002
1.6535	-10.759	0.004
1.654	-10.759	-0.003
1.6545	-10.759	-0.005
1.655	-10.759	0.002
1.6555	-10.759	-0.010
1.656	-10.759	-0.027
1.6565	-10.759	-0.015
1.657	-10.759	-0.018
1.6575	-10.759	-0.029
1.658	-10.759	-0.029
1.6585	-10.759	-0.050
1.659	-10.759	-0.046
1.6595	-10.759	-0.046
1.66	-10.759	-0.049
1.6605	-10.759	-0.049
1.661	-10.759	-0.050
1.6615	-10.759	-0.075
1.662	-10.759	-0.064
1.6625	-10.759	-0.043
1.663	-10.759	-0.043
1.6635	-10.759	-0.033
1.664	-10.759	-0.032
1.6645	-10.759	-0.021
1.665	-10.759	-0.026
1.6655	-10.759	-0.018
1.666	-10.759	-0.009
1.6665	-10.759	-0.012
1.667	-10.759	0.000
1.6675	-10.759	-0.003
1.668	-10.759	-0.007
1.6685	-10.759	-0.015
1.669	-10.759	-0.009
1.6695	-10.759	0.001
1.67	-10.759	0.011
1.6705	-10.759	0.022
1.671	-10.759	0.013
1.6715	-10.759	0.009
1.672	-10.759	0.000
1.6725	-10.759	-0.007
1.673	-10.759	0.004
1.6735	-10.759	0.001
1.674	-10.759	-0.018
1.6745	-10.759	-0.035
1.675	-10.759	-0.042
1.6755	-10.759	-0.046
1.676	-10.759	-0.038
1.6765	-10.759	-0.045
1.677	-10.759	-0.040
1.6775	-10.759	-0.057
1.678	-10.759	-0.060
1.6785	-10.759	-0.058
1.679	-10.759	-0.044
1.6795	-10.759	-0.027
1.68	-10.759	-0.049
1.6805	-10.759	-0.038
1.681	-10.759	-0.035
1.6815	-10.759	-0.025
1.682	-10.759	-0.013
1.6825	-10.759	-0.005
1.683	-10.759	-0.001
1.6835	-10.759	0.003
1.684	-10.759	0.003
1.6845	-10.759	0.002
1.685	-10.759	-0.003
1.6855	-10.759	-0.008
1.686	-10.759	-0.002
1.6865	-10.759	-0.004
1.687	-10.759	-0.009
1.6875	-10.759	-0.007
1.688	-10.759	-0.004
1.6885	-10.759	-0.005
1.689	-10.759	-0.007
1.6895	-10.759	-0.007
1.69	-10.759	-0.011
1.6905	-10.759	-0.015
1.691	-10.759	-0.024
1.6915	-10.759	-0.025
1.692	-10.759	-0.049
1.6925	-10.759	-0.044
1.693	-10.759	-0.039
1.6935	-10.759	-0.031
1.694	-10.759	-0.036
1.6945	-10.759	-0.054
1.695	-10.759	-0.057
1.6955	-10.759	-0.061
1.696	-10.759	-0.043
1.6965	-10.759	-0.042
1.697	-10.759	-0.041
1.6975	-10.759	-0.025
1.698	-10.759	-0.026
1.6985	-10.759	-0.026
1.699	-10.759	-0.029
1.6995	-10.759	-0.031
1.7	-10.759	-0.010
1.7005	-10.759	-0.024
1.701	-10.759	-0.011
1.7015	-10.759	-0.006
1.702	-10.759	-0.001
1.7025	-10.759	-0.004
1.703	-10.759	0.002
1.7035	-10.759	-0.002
1.704	-10.759	-0.017
1.7045	-10.759	-0.004
1.705	-10.759	-0.002
1.7055	-10.759	0.008
1.706	-10.759	-0.002
1.7065	-10.759	-0.009
1.707	-10.759	-0.004
1.7075	-10.759	-0.028
1.708	-10.759	-0.044
1.7085	-10.759	-0.059
1.709	-10.759	-0.050
1.7095	-10.759	-0.049
1.71	-10.759	-0.046
1.7105	-10.759	-0.041
1.711	-10.759	-0.041
1.7115	-10.759	-0.068
1.712	-10.759	-0.060
1.7125	-10.759	-0.056
1.713	-10.759	-0.049
1.7135	-10.759	-0.029
1.714	-10.759	-0.025
1.7145	-10.759	-0.015
1.715	-10.759	-0.021
1.7155	-10.759	-0.020
1.716	-10.759	-0.020
1.7165	-10.759	-0.016
1.717	-10.759	-0.002
1.7175	-10.759	-0.007
1.718	-10.759	-0.004
1.7185	-10.759	0.001
1.719	-10.759	-0.009
1.7195	-10.759	0.001
1.72	-10.759	-0.002
1.7205	-10.759	-0.002
1.721	-10.759	-0.018
1.7215	-10.759	-0.002
1.722	-10.759	-0.010
1.7225	-10.759	-0.014
1.723	-10.759	-0.014
1.7235	-10.759	-0.010
1.724	-10.759	-0.019
1.7245	-10.759	-0.041
1.725	-10.759	-0.045
1.7255	-10.759	-0.046
1.726	-10.759	-0.035
1.7265	-10.759	-0.038
1.727	-10.759	-0.049
1.7275	-10.759	-0.051
1.728	-10.759	-0.062
1.7285	-10.759	-0.055
1.729	-10.759	-0.040
1.7295	-10.759	-0.030
1.73	-10.759	-0.031
1.7305	-10.759	-0.035
1.731	-10.759	-0.023
1.7315	-10.759	-0.016
1.732	-10.759	-0.022
1.7325	-10.759	-0.017
1.733	-10.759	-0.012
1.7335	-10.759	-0.012
1.734	-10.759	-0.008
1.7345	-10.759	-0.008
1.735	-10.759	-0.004
1.7355	-10.759	-0.013
1.736	-10.759	-0.004
1.7365	-10.759	0.002
1.737	-10.759	0.008
1.7375	-10.759	-0.000
1.738	-10.759	-0.005
1.7385	-10.759	-0.001
1.739	-10.759	-0.004
1.7395	-10.759	-0.011
1.74	-10.759	-0.015
1.7405	-10.759	-0.018
1.741	-10.759	-0.026
1.7415	-10.759	-0.040
1.742	-10.759	-0.044
1.7425	-10.759	-0.044
1.743	-10.759	-0.050
1.7435	-10.759	-0.057
1.744	-10.759	-0.057
1.7445	-10.759	-0.054
1.745	-10.759	-0.064
1.7455	-10.759	-0.059
1.746	-10.759	-0.037
1.7465	-10.759	-0.038
1.747	-10.759	-0.033
1.7475	-10.759	-0.022
1.748	-10.759	-0.014
1.7485	-10.759	-0.021
1.749	-10.759	-0.018
1.7495	-10.759	-0.012
1.75	-10.759	-0.006
1.7505	-10.759	0.002
1.751	-10.759	0.007
1.7515	-10.759	0.009
1.752	-10.759	0.009
1.7525	-10.759	0.016
1.753	-10.759	0.001
1.7535	-10.759	-0.004
1.754	-10.759	-0.011
1.7545	-10.759	-0.012
1.755	-10.759	-0.014
1.7555	-10.759	0.001
1.756	-10.759	-0.005
1.7565	-10.759	-0.009
1.757	-10.759	-0.005
1.7575	-10.759	-0.026
1.758	-10.759	-0.048
1.7585	-10.759	-0.071
1.759	-10.759	-0.061
1.7595	-10.759	-0.056
1.76	-10.759	-0.053
1.7605	-10.759	-0.053
1.761	-10.759	-0.046
1.7615	-10.759	-0.053
1.762	-10.759	-0.065
1.7625	-10.759	-0.042
1.763	-10.759	-0.031
1.7635	-10.759	-0.025
1.764	-10.759	-0.036
1.7645	-10.759	-0.023
1.765	-10.759	-0.004
1.7655	-10.759	-0.015
1.766	-10.759	-0.003
1.7665	-10.759	-0.002
1.767	-10.759	-0.004
1.7675	-10.759	-0.013
1.768	-10.759	-0.014
1.7685	-10.759	-0.012
1.769	-10.759	-0.016
1.7695	-10.759	-0.010
1.77	-10.759	0.002
1.7705	-10.759	0.005
1.771	-10.759	-0.001
1.7715	-10.759	-0.010
1.772	-10.759	-0.008
1.7725	-10.759	-0.003
1.773	-10.759	-0.005
1.7735	-10.759	0.003
1.774	-10.759	-0.013
1.7745	-10.759	-0.028
1.775	-10.759	-0.037
1.7755	-10.759	-0.032
1.776	-10.759	-0.027
1.7765	-10.759	-0.033
1.777	-10.759	-0.042
1.7775	-10.759	-0.044
1.778	-10.759	-0.057
1.7785	-10.759	-0.046
1.779	-10.759	-0.047
1.7795	-10.759	-0.028
1.78	-10.759	-0.046
1.7805	-10.759	-0.045
1.781	-10.759	-0.043
1.7815	-10.759	-0.038
1.782	-10.759	-0.019
1.7825	-10.759	-0.025
1.783	-10.759	-0.017
1.7835	-10.759	0.004
1.784	-10.759	0.005
1.7845	-10.759	0.002
1.785	-10.759	0.000
1.7855	-10.759	-0.017
1.786	-10.759	-0.013
1.7865	-10.759	-0.004
1.787	-10.759	-0.001
1.7875	-10.759	-0.003
1.788	-10.759	-0.007
1.7885	-10.759	0.000
1.789	-10.759	0.005
1.7895	-10.759	-0.013
1.79	-10.759	-0.020
1.7905	-10.759	-0.018
1.791	-10.759	-0.022
1.7915	-10.759	-0.039
1.792	-10.759	-0.044
1.7925	-10.759	-0.038
1.793	-10.759	-0.031
1.7935	-10.759	-0.041
1.794	-10.759	-0.041
1.7945	-10.759	-0.045
1.795	-10.759	-0.058
1.7955	-10.759	-0.054
1.796	-10.759	-0.042
1.7965	-10.759	-0.029
1.797	-10.759	-0.030
1.7975	-10.759	-0.027
1.798	-10.759	-0.024
1.7985	-10.759	-0.024
1.799	-10.759	-0.018
1.7995	-10.759	-0.025
1.8	-10.759	0.009
1.8005	-10.759	0.012
1.801	-10.759	0.003
1.8015	-10.759	0.004
1.802	-10.759	0.002
1.8025	-10.759	-0.006
1.803	-10.759	-0.025
1.8035	-10.759	-0.010
1.804	-10.759	-0.013
1.8045	-10.759	-0.006
1.805	-10.759	-0.003
1.8055	-10.759	-0.001
1.806	-10.759	-0.005
1.8065	-10.759	-0.020
1.807	-10.759	-0.015
1.8075	-10.759	-0.022
1.808	-10.759	-0.035
1.8085	-10.759	-0.046
1.809	-10.759	-0.045
1.8095	-10.759	-0.036
1.81	-10.759	-0.042
1.8105	-10.759	-0.045
1.811	-10.759	-0.048
1.8115	-10.759	-0.052
1.812	-10.759	-0.037
1.8125	-10.759	-0.034
1.813	-10.759	-0.024
1.8135	-10.759	-0.026
1.814	-10.759	-0.033
1.8145	-10.759	-0.045
1.815	-10.759	-0.042
1.8155	-10.759	-0.032
1.816	-10.759	-0.019
1.8165	-10.759	-0.019
1.817	-10.759	-0.005
1.8175	-10.759	-0.002
1.818	-10.759	-0.004
1.8185	-10.759	0.003
1.819	-10.759	-0.000
1.8195	-10.759	0.004
1.82	-10.759	-0.011
1.8205	-10.759	-0.001
1.821	-10.759	-0.005
1.8215	-10.759	-0.006
1.822	-10.759	-0.001
1.8225	-10.759	-0.009
1.823	-10.759	-0.013
1.8235	-10.759	-0.020
1.824	-10.759	-0.024
1.8245	-10.759	-0.024
1.825	-10.759	-0.026
1.8255	-10.759	-0.029
1.826	-10.759	-0.048
1.8265	-10.759	-0.044
1.827	-10.759	-0.047
1.8275	-10.759	-0.055
1.828	-10.759	-0.060
1.8285	-10.759	-0.050
1.829	-10.759	-0.038
1.8295	-10.759	-0.027
1.83	-10.759	-0.021
1.8305	-10.759	-0.022
1.831	-10.759	-0.038
1.8315	-10.759	-0.027
1.832	-10.759	-0.030
1.8325	-10.759	-0.019
1.833	-10.759	-0.008
1.8335	-10.759	-0.003
1.834	-10.759	0.005
1.8345	-10.759	-0.004
1.835	-10.759	-0.009
1.8355	-10.759	-0.010
1.836	-10.759	0.004
1.8365	-10.759	-0.008
1.837	-10.759	-0.004
1.8375	-10.759	-0.002
1.838	-10.759	0.003
1.8385	-10.759	-0.001
1.839	-10.759	-0.005
1.8395	-10.759	-0.009
1.84	-10.759	-0.019
1.8405	-10.759	-0.043
1.841	-10.759	-0.036
1.8415	-10.759	-0.047
1.842	-10.759	-0.053
1.8425	-10.759	-0.044
1.843	-10.759	-0.050
1.8435	-10.759	-0.039
1.844	-10.759	-0.049
1.8445	-10.759	-0.048
1.845	-10.759	-0.054
1.8455	-10.759	-0.041
1.846	-10.759	-0.036
1.8465	-10.759	-0.035
1.847	-10.759	-0.033
1.8475	-10.759	-0.035
1.848	-10.759	-0.023
1.8485	-10.759	-0.027
1.849	-10.759	-0.020
1.8495	-10.759	-0.015
1.85	-10.759	-0.004
1.8505	-10.759	-0.001
1.851	-10.759	0.000
1.8515	-10.759	-0.004
1.852	-10.759	-0.007
1.8525	-10.759	-0.008
1.853	-10.759	-0.007
1.8535	-10.759	-0.011
1.854	-10.759	0.001
1.8545	-10.759	0.003
1.855	-10.759	-0.015
1.8555	-10.759	-0.007
1.856	-10.759	-0.002
1.8565	-10.759	0.003
1.857	-10.759	-0.010
1.8575	-10.759	-0.027
1.858	-10.759	-0.021
1.8585	-10.759	-0.028
1.859	-10.759	-0.021
1.8595	-10.759	-0.023
1.86	-10.759	-0.039
1.8605	-10.759	-0.034
1.861	-10.759	-0.064
1.8615	-10.759	-0.070
1.862	-10.759	-0.058
1.8625	-10.759	-0.041
1.863	-10.759	-0.030
1.8635	-10.759	-0.035
1.864	-10.759	-0.036
1.8645	-10.759	-0.032
1.865	-10.759	-0.031
1.8655	-10.759	-0.018
1.866	-10.759	-0.026
1.8665	-10.759	-0.025
1.867	-10.759	-0.015
1.8675	-10.759	-0.010
1.868	-10.759	-0.012
1.8685	-10.759	-0.017
1.869	-10.759	-0.014
1.8695	-10.759	-0.014
1.87	-10.759	0.002
1.8705	-10.759	0.000
1.871	-10.759	-0.000
1.8715	-10.759	0.002
1.872	-10.759	0.003
1.8725	-10.759	-0.010
1.873	-10.759	-0.006
1.8735	-10.759	-0.002
1.874	-10.759	-0.016
1.8745	-10.759	-0.025
1.875	-10.759	-0.029
1.8755	-10.759	-0.044
1.876	-10.759	-0.041
1.8765	-10.759	-0.043
1.877	-10.759	-0.050
1.8775	-10.759	-0.051
1.878	-10.759	-0.073
1.8785	-10.759	-0.054
1.879	-10.759	-0.048
1.8795	-10.759	-0.033
1.88	-10.759	-0.038
1.8805	-10.759	-0.035
1.881	-10.759	-0.035
1.8815	-10.759	-0.029
1.882	-10.759	-0.021
1.8825	-10.759	-0.014
1.883	-10.759	-0.007
1.8835	-10.759	-0.003
1.884	-10.759	-0.004
1.8845	-10.759	-0.003
1.885	-10.759	-0.016
1.8855	-10.759	-0.015
1.886	-10.759	-0.007
1.8865	-10.759	-0.006
1.887	-10.759	0.005
1.8875	-10.759	-0.010
1.888	-10.759	-0.013
1.8885	-10.759	-0.008
1.889	-10.759	-0.008
1.8895	-10.759	-0.015
1.89	-10.759	-0.001
1.8905	-10.759	-0.013
1.891	-10.759	-0.031
1.8915	-10.759	-0.035
1.892	-10.759	-0.034
1.8925	-10.759	-0.040
1.893	-10.761	-0.039
1.8935	-10.761	-0.042
1.894	-10.761	-0.047
1.8945	-10.761	-0.050
1.895	-10.761	-0.059
1.8955	-10.761	-0.043
1.896	-10.761	-0.038
1.8965	-10.761	-0.045
1.897	-10.761	-0.040
1.8975	-10.761	-0.029
1.898	-10.761	-0.013
1.8985	-10.761	-0.028
1.899	-10.761	-0.012
1.8995	-10.761	-0.009
1.9	-10.761	-0.008
1.9005	-10.761	0.002
1.901	-10.761	-0.004
1.9015	-10.761	-0.002
1.902	-10.761	-0.012
1.9025	-10.761	-0.008
1.903	-10.761	0.006
1.9035	-10.761	0.004
1.904	-10.761	0.005
1.9045	-10.761	-0.011
1.905	-10.761	-0.008
1.9055	-10.761	-0.011
1.906	-10.761	-0.011
1.9065	-10.761	-0.023
1.907	-10.761	-0.014
1.9075	-10.761	-0.016
1.908	-10.761	-0.029
1.9085	-10.761	-0.048
1.909	-10.761	-0.043
1.9095	-10.761	-0.042
1.91	-10.761	-0.030
1.9105	-10.761	-0.042
1.911	-10.761	-0.051
1.9115	-10.761	-0.074
1.912	-10.761	-0.076
1.9125	-10.761	-0.058
1.913	-10.761	-0.042
1.9135	-10.761	-0.031
1.914	-10.761	-0.037
1.9145	-10.761	-0.019
1.915	-10.761	-0.005
1.9155	-10.761	-0.021
1.916	-10.761	-0.009
1.9165	-10.761	-0.010
1.917	-10.761	-0.004
1.9175	-10.761	-0.010
1.918	-10.761	0.005
1.9185	-10.761	0.006
1.919	-10.761	-0.009
1.9195	-10.761	0.005
1.92	-10.761	-0.003
1.9205	-10.761	-0.003
1.921	-10.761	-0.005
1.9215	-10.761	-0.007
1.922	-10.761	-0.008
1.9225	-10.761	-0.025
1.923	-10.761	-0.014
1.9235	-10.761	-0.006
1.924	-10.761	-0.015
1.9245	-10.761	-0.022
1.925	-10.761	-0.036
1.9255	-10.761	-0.021
1.926	-10.761	-0.026
1.9265	-10.761	-0.035
1.927	-10.761	-0.041
1.9275	-10.761	-0.044
1.928	-10.761	-0.064
1.9285	-10.761	-0.046
1.929	-10.761	-0.030
1.9295	-10.761	-0.013
1.93	-10.761	-0.022
1.9305	-10.761	-0.037
1.931	-10.761	-0.037
1.9315	-10.761	-0.031
1.932	-10.761	-0.021
1.9325	-10.761	-0.016
1.933	-10.761	-0.003
1.9335	-10.761	0.006
1.934	-10.761	-0.005
1.9345	-10.761	-0.008
1.935	-10.761	-0.006
1.9355	-10.761	-0.007
1.936	-10.761	-0.019
1.9365	-10.761	-0.004
1.937	-10.761	-0.013
1.9375	-10.761	-0.021
1.938	-10.761	-0.022
1.9385	-10.761	-0.005
1.939	-10.761	-0.002
1.9395	-10.761	-0.022
1.94	-10.761	-0.004
1.9405	-10.761	-0.007
1.941	-10.761	-0.004
1.9415	-10.761	-0.019
1.942	-10.761	-0.043
1.9425	-10.761	-0.036
1.943	-10.761	-0.050
1.9435	-10.761	-0.051
1.944	-10.761	-0.056
1.9445	-10.761	-0.073
1.945	-10.761	-0.070
1.9455	-10.761	-0.052
1.946	-10.761	-0.027
1.9465	-10.761	-0.036
1.947	-10.761	-0.045
1.9475	-10.761	-0.036
1.948	-10.761	-0.021
1.9485	-10.761	-0.014
1.949	-10.761	-0.005
1.9495	-10.761	0.004
1.95	-10.761	0.014
1.9505	-10.761	0.015
1.951	-10.761	0.017
1.9515	-10.761	0.002
1.952	-10.761	-0.003
1.9525	-10.761	-0.015
1.953	-10.761	-0.013
1.9535	-10.761	0.004
1.954	-10.761	-0.010
1.9545	-10.761	-0.020
1.955	-10.761	-0.014
1.9555	-10.761	0.001
1.956	-10.761	-0.006
1.9565	-10.761	-0.014
1.957	-10.761	-0.014
1.9575	-10.761	-0.033
1.958	-10.761	-0.030
1.9585	-10.761	-0.048
1.959	-10.761	-0.038
1.9595	-10.761	-0.022
1.96	-10.761	-0.041
1.9605	-10.761	-0.051
1.961	-10.761	-0.067
1.9615	-10.761	-0.061
1.962	-10.761	-0.055
1.9625	-10.761	-0.038
1.963	-10.761	-0.025
1.9635	-10.761	-0.040
1.964	-10.761	-0.043
1.9645	-10.761	-0.033
1.965	-10.761	-0.018
1.9655	-10.761	-0.014
1.966	-10.761	-0.011
1.9665	-10.761	-0.011
1.967	-10.761	0.008
1.9675	-10.761	0.001
1.968	-10.761	-0.004
1.9685	-10.761	-0.003
1.969	-10.761	-0.018
1.9695	-10.761	-0.001
1.97	-10.761	0.002
1.9705	-10.761	-0.000
1.971	-10.761	-0.029
1.9715	-10.761	-0.017
1.972	-10.761	-0.006
1.9725	-10.761	-0.011
1.973	-10.761	-0.018
1.9735	-10.761	-0.020
1.974	-10.761	-0.015
1.9745	-10.761	-0.023
1.975	-10.761	-0.032
1.9755	-10.761	-0.044
1.976	-10.761	-0.042
1.9765	-10.761	-0.036
1.977	-10.761	-0.064
1.9775	-10.761	-0.050
1.978	-10.761	-0.052
1.9785	-10.761	-0.044
1.979	-10.761	-0.042
1.9795	-10.761	-0.028
1.98	-10.761	-0.020
1.9805	-10.761	-0.036
1.981	-10.761	-0.033
1.9815	-10.761	-0.023
1.982	-10.761	-0.022
1.9825	-10.761	-0.019
1.983	-10.761	-0.021
1.9835	-10.761	0.002
1.984	-10.761	-0.015
1.9845	-10.761	-0.010
1.985	-10.761	-0.005
1.9855	-10.761	-0.015
1.986	-10.761	-0.003
1.9865	-10.761	0.010
1.987	-10.761	0.000
1.9875	-10.761	-0.007
1.988	-10.761	-0.007
1.9885	-10.761	-0.006
1.989	-10.761	-0.015
1.9895	-10.761	-0.015
1.99	-10.761	-0.014
1.9905	-10.761	-0.024
1.991	-10.761	-0.027
1.9915	-10.761	-0.039
1.992	-10.761	-0.050
1.9925	-10.761	-0.042
1.993	-10.761	-0.039
1.9935	-10.761	-0.039
1.994	-10.761	-0.045
1.9945	-10.761	-0.048
1.995	-10.761	-0.051
1.9955	-10.761	-0.051
1.996	-10.761	-0.045
1.9965	-10.761	-0.051
1.997	-10.761	-0.046
1.9975	-10.761	-0.054
1.998	-10.761	-0.020
1.9985	-10.761	-0.014
1.999	-10.761	-0.013
1.9995	-10.761	-0.019
2.0	-10.761	-0.015
2.0005	-10.761	0.000
2.001	-10.761	-0.013
2.0015	-10.761	-0.004
2.002	-10.761	-0.004
2.0025	-10.761	-0.004
2.003	-10.761	-0.003
2.0035	-10.761	0.013
2.004	-10.761	0.008
2.0045	-10.761	0.000
2.005	-10.761	0.006
2.0055	-10.761	-0.004
2.006	-10.761	-0.005
2.0065	-10.761	-0.010
2.007	-10.761	-0.017
2.0075	-10.761	-0.019
2.008	-10.761	-0.029
2.0085	-10.761	-0.054
2.009	-10.761	-0.046
2.0095	-10.761	-0.042
2.01	-10.761	-0.057
2.0105	-10.761	-0.059
2.011	-10.761	-0.065
2.0115	-10.761	-0.051
2.012	-10.761	-0.050
2.0125	-10.761	-0.032
2.013	-10.761	-0.035
2.0135	-10.761	-0.039
2.014	-10.761	-0.032
2.0145	-10.761	-0.020
2.015	-10.761	-0.014
2.0155	-10.761	-0.007
2.016	-10.761	-0.010
2.0165	-10.761	-0.007
2.017	-10.761	-0.003
2.0175	-10.761	-0.007
2.018	-10.761	-0.037
2.0185	-10.761	-0.010
2.019	-10.761	-0.012
2.0195	-10.761	0.001
2.02	-10.761	-0.000
2.0205	-10.761	-0.001
2.021	-10.761	-0.010
2.0215	-10.761	-0.018
2.022	-10.761	-0.000
2.0225	-10.761	-0.012
2.023	-10.761	-0.013
2.0235	-10.761	-0.010
2.024	-10.761	-0.022
2.0245	-10.761	-0.035
2.025	-10.761	-0.053
2.0255	-10.761	-0.058
2.026	-10.761	-0.046
2.0265	-10.761	-0.046
2.027	-10.761	-0.044
2.0275	-10.761	-0.059
2.028	-10.761	-0.047
2.0285	-10.761	-0.039
2.029	-10.761	-0.035
2.0295	-10.761	-0.029
2.03	-10.761	-0.035
2.0305	-10.761	-0.039
2.031	-10.761	-0.035
2.0315	-10.761	-0.036
2.032	-10.761	-0.019
2.0325	-10.761	-0.015
2.033	-10.761	-0.010
2.0335	-10.761	0.005
2.034	-10.761	0.003
2.0345	-10.761	-0.003
2.035	-10.761	-0.008
2.0355	-10.761	-0.005
2.036	-10.761	-0.002
2.0365	-10.761	0.000
2.037	-10.761	0.008
2.0375	-10.761	-0.008
2.038	-10.761	-0.000
2.0385	-10.761	0.003
2.039	-10.761	0.004
2.0395	-10.761	-0.010
2.04	-10.761	-0.009
2.0405	-10.761	-0.022
2.041	-10.761	-0.030
2.0415	-10.761	-0.036
2.042	-10.761	-0.059
2.0425	-10.761	-0.039
2.043	-10.761	-0.034
2.0435	-10.761	-0.039
2.044	-10.761	-0.052
2.0445	-10.761	-0.060
2.045	-10.761	-0.047
2.0455	-10.761	-0.052
2.046	-10.761	-0.040
2.0465	-10.761	-0.036
2.047	-10.761	-0.033
2.0475	-10.761	-0.029
2.048	-10.761	-0.024
2.0485	-10.761	-0.010
2.049	-10.761	-0.006
2.0495	-10.761	-0.005
2.05	-10.761	0.009
2.0505	-10.761	0.007
2.051	-10.761	-0.009
2.0515	-10.761	-0.014
2.052	-10.761	-0.027
2.0525	-10.761	-0.017
2.053	-10.761	-0.007
2.0535	-10.761	-0.012
2.054	-10.761	-0.017
2.0545	-10.761	-0.008
2.055	-10.761	0.002
2.0555	-10.761	-0.001
2.056	-10.761	0.011
2.0565	-10.761	0.008
2.057	-10.761	0.007
2.0575	-10.761	-0.022
2.058	-10.761	-0.035
2.0585	-10.761	-0.034
2.059	-10.761	-0.045
2.0595	-10.761	-0.044
2.06	-10.761	-0.039
2.0605	-10.761	-0.043
2.061	-10.761	-0.046
2.0615	-10.761	-0.056
2.062	-10.761	-0.069
2.0625	-10.761	-0.059
2.063	-10.761	-0.047
2.0635	-10.761	-0.038
2.064	-10.761	-0.030
2.0645	-10.761	-0.023
2.065	-10.761	-0.017
2.0655	-10.761	-0.013
2.066	-10.761	-0.004
2.0665	-10.761	-0.013
2.067	-10.761	0.001
2.0675	-10.761	-0.005
2.068	-10.761	0.010
2.0685	-10.761	0.007
2.069	-10.761	0.001
2.0695	-10.761	0.009
2.07	-10.761	0.010
2.0705	-10.761	0.004
2.071	-10.761	-0.007
2.0715	-10.761	-0.003
2.072	-10.761	-0.008
2.0725	-10.761	-0.016
2.073	-10.761	-0.015
2.0735	-10.761	-0.021
2.074	-10.761	-0.033
2.0745	-10.761	-0.043
2.075	-10.761	-0.046
2.0755	-10.761	-0.047
2.076	-10.761	-0.054
2.0765	-10.761	-0.046
2.077	-10.761	-0.046
2.0775	-10.761	-0.053
2.078	-10.761	-0.073
2.0785	-10.761	-0.071
2.079	-10.761	-0.044
2.0795	-10.761	-0.042
2.08	-10.761	-0.027
2.0805	-10.761	-0.024
2.081	-10.761	-0.018
2.0815	-10.761	-0.007
2.082	-10.761	0.006
2.0825	-10.761	0.004
2.083	-10.761	-0.002
2.0835	-10.761	-0.004
2.084	-10.761	-0.012
2.0845	-10.761	-0.009
2.085	-10.761	-0.004
2.0855	-10.761	-0.019
2.086	-10.761	-0.008
2.0865	-10.761	0.003
2.087	-10.761	-0.006
2.0875	-10.761	-0.015
2.088	-10.761	-0.024
2.0885	-10.761	-0.006
2.089	-10.761	-0.011
2.0895	-10.761	-0.016
2.09	-10.761	-0.000
2.0905	-10.761	-0.011
2.091	-10.761	-0.017
2.0915	-10.761	-0.031
2.092	-10.761	-0.037
2.0925	-10.761	-0.042
2.093	-10.761	-0.060
2.0935	-10.761	-0.049
2.094	-10.761	-0.052
2.0945	-10.761	-0.037
2.095	-10.761	-0.056
2.0955	-10.761	-0.052
2.096	-10.761	-0.045
2.0965	-10.761	-0.049
2.097	-10.761	-0.048
2.0975	-10.761	-0.041
2.098	-10.761	-0.028
2.0985	-10.761	-0.012
2.099	-10.761	-0.005
2.0995	-10.761	-0.003
2.1	-10.761	-0.009
2.1005	-10.761	0.005
2.101	-10.761	-0.000
2.1015	-10.761	-0.015
2.102	-10.761	-0.017
2.1025	-10.761	-0.000
2.103	-10.761	0.015
2.1035	-10.761	0.005
2.104	-10.761	-0.006
2.1045	-10.761	-0.007
2.105	-10.761	-0.012
2.1055	-10.761	-0.014
2.106	-10.761	-0.017
2.1065	-10.761	-0.014
2.107	-10.761	-0.000
2.1075	-10.761	-0.019
2.108	-10.761	-0.015
2.1085	-10.761	-0.031
2.109	-10.761	-0.040
2.1095	-10.761	-0.036
2.11	-10.761	-0.042
2.1105	-10.761	-0.034
2.111	-10.761	-0.053
2.1115	-10.761	-0.051
2.112	-10.761	-0.048
2.1125	-10.761	-0.043
2.113	-10.761	-0.031
2.1135	-10.761	-0.048
2.114	-10.761	-0.040
2.1145	-10.761	-0.032
2.115	-10.761	-0.027
2.1155	-10.761	-0.031
2.116	-10.761	-0.028
2.1165	-10.761	-0.010
2.117	-10.761	-0.016
2.1175	-10.761	-0.008
2.118	-10.761	0.004
2.1185	-10.761	-0.003
2.119	-10.761	0.001
2.1195	-10.761	0.013
2.12	-10.759	0.002
2.1205	-10.759	-0.014
2.121	-10.759	-0.019
2.1215	-10.759	-0.010
2.122	-10.759	-0.009
2.1225	-10.759	-0.001
2.123	-10.759	-0.010
2.1235	-10.759	-0.003
2.124	-10.759	-0.016
2.1245	-10.759	-0.037
2.125	-10.759	-0.050
2.1255	-10.759	-0.050
2.126	-10.759	-0.047
2.1265	-10.759	-0.046
2.127	-10.759	-0.043
2.1275	-10.759	-0.040
2.128	-10.759	-0.046
2.1285	-10.759	-0.050
2.129	-10.759	-0.042
2.1295	-10.759	-0.036
2.13	-10.759	-0.020
2.1305	-10.759	-0.026
2.131	-10.759	-0.019
2.1315	-10.759	-0.012
2.132	-10.759	-0.010
2.1325	-10.759	-0.010
2.133	-10.759	-0.017
2.1335	-10.759	-0.011
2.134	-10.759	-0.013
2.1345	-10.759	0.003
2.135	-10.759	-0.004
2.1355	-10.759	-0.007
2.136	-10.759	-0.004
2.1365	-10.759	0.005
2.137	-10.759	0.002
2.1375	-10.759	-0.021
2.138	-10.759	-0.018
2.1385	-10.759	-0.030
2.139	-10.759	-0.024
2.1395	-10.759	-0.019
2.14	-10.759	-0.018
2.1405	-10.759	-0.019
2.141	-10.759	-0.026
2.1415	-10.759	-0.022
2.142	-10.759	-0.052
2.1425	-10.759	-0.049
2.143	-10.759	-0.052
2.1435	-10.759	-0.053
2.144	-10.759	-0.035
2.1445	-10.759	-0.041
2.145	-10.759	-0.053
2.1455	-10.759	-0.050
2.146	-10.759	-0.044
2.1465	-10.759	-0.043
2.147	-10.759	-0.041
2.1475	-10.759	-0.034
2.148	-10.759	-0.026
2.1485	-10.759	-0.018
2.149	-10.759	-0.014
2.1495	-10.759	-0.011
2.15	-10.759	0.002
2.1505	-10.759	0.007
2.151	-10.759	-0.001
2.1515	-10.759	0.004
2.152	-10.759	-0.001
2.1525	-10.759	-0.001
2.153	-10.759	0.001
2.1535	-10.759	0.010
2.154	-10.759	-0.009
2.1545	-10.759	-0.030
2.155	-10.759	-0.009
2.1555	-10.759	-0.012
2.156	-10.759	-0.008
2.1565	-10.759	-0.015
2.157	-10.759	-0.016
2.1575	-10.759	-0.025
2.158	-10.759	-0.040
2.1585	-10.759	-0.045
2.159	-10.759	-0.040
2.1595	-10.759	-0.039
2.16	-10.759	-0.040
2.1605	-10.759	-0.049
2.161	-10.759	-0.044
2.1615	-10.759	-0.060
2.162	-10.759	-0.060
2.1625	-10.759	-0.035
2.163	-10.759	-0.035
2.1635	-10.759	-0.033
2.164	-10.759	-0.022
2.1645	-10.759	-0.014
2.165	-10.759	-0.019
2.1655	-10.759	-0.023
2.166	-10.759	-0.026
2.1665	-10.759	-0.016
2.167	-10.759	0.002
2.1675	-10.759	-0.013
2.168	-10.759	-0.011
2.1685	-10.759	-0.010
2.169	-10.759	-0.010
2.1695	-10.759	0.006
2.17	-10.759	0.010
2.1705	-10.759	0.010
2.171	-10.759	0.004
2.1715	-10.759	-0.008
2.172	-10.759	0.001
2.1725	-10.759	0.000
2.173	-10.759	-0.008
2.1735	-10.759	-0.009
2.174	-10.759	-0.018
2.1745	-10.759	-0.032
2.175	-10.759	-0.057
2.1755	-10.759	-0.050
2.176	-10.759	-0.047
2.1765	-10.759	-0.041
2.177	-10.759	-0.044
2.1775	-10.759	-0.046
2.178	-10.759	-0.052
2.1785	-10.759	-0.060
2.179	-10.759	-0.045
2.1795	-10.759	-0.040
2.18	-10.759	-0.039
2.1805	-10.759	-0.040
2.181	-10.759	-0.029
2.1815	-10.759	-0.023
2.182	-10.759	-0.021
2.1825	-10.759	-0.017
2.183	-10.759	-0.007
2.1835	-10.759	-0.003
2.184	-10.759	0.001
2.1845	-10.759	0.005
2.185	-10.759	0.005
2.1855	-10.759	-0.003
2.186	-10.759	0.006
2.1865	-10.759	0.009
2.187	-10.759	0.013
2.1875	-10.759	0.007
2.188	-10.759	-0.012
2.1885	-10.759	-0.003
2.189	-10.759	-0.002
2.1895	-10.759	-0.016
2.19	-10.759	-0.021
2.1905	-10.759	-0.022
2.191	-10.759	-0.032
2.1915	-10.759	-0.039
2.192	-10.759	-0.061
2.1925	-10.759	-0.048
2.193	-10.759	-0.047
2.1935	-10.759	-0.046
2.194	-10.759	-0.055
2.1945	-10.759	-0.049
2.195	-10.759	-0.059
2.1955	-10.759	-0.063
2.196	-10.759	-0.036
2.1965	-10.759	-0.033
2.197	-10.759	-0.030
2.1975	-10.759	-0.029
2.198	-10.759	-0.025
2.1985	-10.759	-0.010
2.199	-10.759	-0.021
2.1995	-10.759	-0.008
2.2	-10.759	-0.006
2.2005	-10.759	-0.007
2.201	-10.759	-0.007
2.2015	-10.759	-0.005
2.202	-10.759	-0.005
2.2025	-10.759	-0.000
2.203	-10.759	-0.002
2.2035	-10.759	0.009
2.204	-10.759	-0.007
2.2045	-10.759	-0.025
2.205	-10.759	-0.007
2.2055	-10.759	-0.009
2.206	-10.759	-0.009
2.2065	-10.759	-0.015
2.207	-10.759	-0.015
2.2075	-10.759	-0.013
2.208	-10.759	-0.020
2.2085	-10.759	-0.035
2.209	-10.759	-0.030
2.2095	-10.759	-0.007
2.21	-10.759	-0.026
2.2105	-10.759	-0.029
2.211	-10.759	-0.041
2.2115	-10.759	-0.049
2.212	-10.759	-0.050
2.2125	-10.759	-0.059
2.213	-10.759	-0.038
2.2135	-10.759	-0.047
2.214	-10.759	-0.042
2.2145	-10.759	-0.041
2.215	-10.759	-0.030
2.2155	-10.759	-0.020
2.216	-10.759	-0.034
2.2165	-10.759	-0.013
2.217	-10.759	-0.004
2.2175	-10.759	-0.011
2.218	-10.759	-0.006
2.2185	-10.759	0.000
2.219	-10.759	-0.001
2.2195	-10.759	-0.004
2.22	-10.759	0.002
2.2205	-10.759	0.006
2.221	-10.759	-0.009
2.2215	-10.759	-0.008
2.222	-10.759	0.002
2.2225	-10.759	0.001
2.223	-10.759	-0.009
2.2235	-10.759	-0.019
2.224	-10.759	-0.033
2.2245	-10.759	-0.038
2.225	-10.759	-0.048
2.2255	-10.759	-0.046
2.226	-10.759	-0.032
2.2265	-10.759	-0.034
2.227	-10.759	-0.044
2.2275	-10.759	-0.043
2.228	-10.759	-0.054
2.2285	-10.759	-0.062
2.229	-10.759	-0.056
2.2295	-10.759	-0.043
2.23	-10.759	-0.027
2.2305	-10.759	-0.028
2.231	-10.759	-0.017
2.2315	-10.759	-0.019
2.232	-10.759	-0.017
2.2325	-10.759	-0.012
2.233	-10.759	-0.025
2.2335	-10.759	0.003
2.234	-10.759	0.000
2.2345	-10.759	-0.003
2.235	-10.759	0.003
2.2355	-10.759	-0.000
2.236	-10.759	0.003
2.2365	-10.759	-0.002
2.237	-10.759	0.004
2.2375	-10.759	-0.002
2.238	-10.759	-0.001
2.2385	-10.759	0.006
2.239	-10.759	-0.002
2.2395	-10.759	-0.001
2.24	-10.759	-0.013
2.2405	-10.759	-0.011
2.241	-10.759	-0.024
2.2415	-10.759	-0.035
2.242	-10.759	-0.048
2.2425	-10.759	-0.053
2.243	-10.759	-0.038
2.2435	-10.759	-0.042
2.244	-10.759	-0.052
2.2445	-10.759	-0.057
2.245	-10.759	-0.060
2.2455	-10.759	-0.053
2.246	-10.759	-0.040
2.2465	-10.759	-0.037
2.247	-10.759	-0.046
2.2475	-10.759	-0.051
2.248	-10.759	-0.039
2.2485	-10.759	-0.033
2.249	-10.759	-0.018
2.2495	-10.759	-0.009
2.25	-10.759	0.002
2.2505	-10.759	0.002
2.251	-10.759	0.005
2.2515	-10.759	0.010
2.252	-10.759	0.003
2.2525	-10.759	0.008
2.253	-10.759	0.007
2.2535	-10.759	-0.010
2.254	-10.759	0.001
2.2545	-10.759	-0.008
2.255	-10.759	0.007
2.2555	-10.759	0.007
2.256	-10.758	-0.011
2.2565	-10.758	-0.013
2.257	-10.758	-0.027
2.2575	-10.758	-0.036
2.258	-10.758	-0.041
2.2585	-10.758	-0.051
2.259	-10.758	-0.043
2.2595	-10.758	-0.051
2.26	-10.758	-0.047
2.2605	-10.758	-0.058
2.261	-10.758	-0.056
2.2615	-10.758	-0.048
2.262	-10.758	-0.054
2.2625	-10.758	-0.036
2.263	-10.758	-0.033
2.2635	-10.758	-0.030
2.264	-10.758	-0.026
2.2645	-10.758	-0.020
2.265	-10.758	-0.011
2.2655	-10.758	-0.014
2.266	-10.758	-0.009
2.2665	-10.758	-0.004
2.267	-10.758	0.004
2.2675	-10.758	0.001
2.268	-10.758	-0.005
2.2685	-10.758	-0.017
2.269	-10.758	-0.025
2.2695	-10.758	-0.005
2.27	-10.758	0.001
2.2705	-10.758	0.003
2.271	-10.758	-0.005
2.2715	-10.758	-0.018
2.272	-10.758	-0.031
2.2725	-10.758	-0.029
2.273	-10.758	-0.014
2.2735	-10.758	-0.019
2.274	-10.758	-0.033
2.2745	-10.758	-0.021
2.275	-10.758	-0.022
2.2755	-10.758	-0.018
2.276	-10.758	-0.015
2.2765	-10.758	-0.018
2.277	-10.758	-0.041
2.2775	-10.758	-0.068
2.278	-10.758	-0.067
2.2785	-10.758	-0.065
2.279	-10.758	-0.054
2.2795	-10.758	-0.041
2.28	-10.758	-0.032
2.2805	-10.758	-0.030
2.281	-10.758	-0.041
2.2815	-10.758	-0.024
2.282	-10.758	-0.023
2.2825	-10.758	-0.024
2.283	-10.758	-0.016
2.2835	-10.758	0.003
2.284	-10.758	-0.003
2.2845	-10.758	-0.009
2.285	-10.758	-0.007
2.2855	-10.758	-0.014
2.286	-10.758	-0.003
2.2865	-10.758	0.001
2.287	-10.758	0.011
2.2875	-10.758	-0.002
2.288	-10.758	0.001
2.2885	-10.758	-0.002
2.289	-10.758	-0.014
2.2895	-10.758	-0.012
2.29	-10.758	-0.009
2.2905	-10.758	-0.017
2.291	-10.758	-0.029
2.2915	-10.758	-0.024
2.292	-10.758	-0.044
2.2925	-10.758	-0.034
2.293	-10.758	-0.030
2.2935	-10.758	-0.048
2.294	-10.758	-0.028
2.2945	-10.758	-0.044
2.295	-10.758	-0.039
2.2955	-10.758	-0.040
2.296	-10.758	-0.027
2.2965	-10.758	-0.036
2.297	-10.758	-0.033
2.2975	-10.758	-0.036
2.298	-10.758	-0.048
2.2985	-10.758	-0.033
2.299	-10.758	-0.029
2.2995	-10.758	-0.020
2.3	-10.758	0.006
2.3005	-10.758	0.013
2.301	-10.758	0.004
2.3015	-10.758	-0.010
2.302	-10.758	-0.006
2.3025	-10.758	0.002
2.303	-10.758	0.007
2.3035	-10.758	0.005
2.304	-10.758	-0.008
2.3045	-10.758	-0.014
2.305	-10.758	-0.013
2.3055	-10.758	-0.006
2.306	-10.758	-0.011
2.3065	-10.758	-0.012
2.307	-10.758	-0.005
2.3075	-10.758	-0.009
2.308	-10.758	-0.022
2.3085	-10.758	-0.027
2.309	-10.758	-0.030
2.3095	-10.758	-0.034
2.31	-10.758	-0.041
2.3105	-10.758	-0.050
2.311	-10.758	-0.055
2.3115	-10.758	-0.065
2.312	-10.758	-0.048
2.3125	-10.758	-0.039
2.313	-10.758	-0.032
2.3135	-10.758	-0.036
2.314	-10.758	-0.036
2.3145	-10.758	-0.022
2.315	-10.758	-0.028
2.3155	-10.758	-0.008
2.316	-10.758	-0.003
2.3165	-10.758	-0.014
2.317	-10.758	-0.008
2.3175	-10.758	-0.010
2.318	-10.758	-0.013
2.3185	-10.758	-0.016
2.319	-10.758	-0.006
2.3195	-10.758	0.008
2.32	-10.758	0.010
2.3205	-10.758	-0.001
2.321	-10.758	-0.019
2.3215	-10.758	-0.005
2.322	-10.758	0.004
2.3225	-10.758	-0.002
2.323	-10.758	-0.005
2.3235	-10.758	-0.006
2.324	-10.758	-0.026
2.3245	-10.758	-0.036
2.325	-10.758	-0.045
2.3255	-10.758	-0.047
2.326	-10.758	-0.046
2.3265	-10.758	-0.041
2.327	-10.758	-0.047
2.3275	-10.758	-0.054
2.328	-10.758	-0.052
2.3285	-10.758	-0.061
2.329	-10.758	-0.044
2.3295	-10.758	-0.039
2.33	-10.758	-0.038
2.3305	-10.758	-0.048
2.331	-10.758	-0.034
2.3315	-10.758	-0.019
2.332	-10.758	-0.032
2.3325	-10.758	-0.002
2.333	-10.758	-0.012
2.3335	-10.758	-0.002
2.334	-10.758	-0.005
2.3345	-10.758	-0.009
2.335	-10.758	-0.014
2.3355	-10.758	-0.018
2.336	-10.758	0.007
2.3365	-10.758	0.000
2.337	-10.758	0.003
2.3375	-10.758	-0.010
2.338	-10.758	-0.007
2.3385	-10.758	-0.004
2.339	-10.758	-0.020
2.3395	-10.758	-0.011
2.34	-10.758	-0.010
2.3405	-10.758	-0.020
2.341	-10.758	-0.040
2.3415	-10.758	-0.053
2.342	-10.758	-0.054
2.3425	-10.758	-0.043
2.343	-10.758	-0.043
2.3435	-10.758	-0.034
2.344	-10.758	-0.036
2.3445	-10.758	-0.058
2.345	-10.758	-0.054
2.3455	-10.758	-0.035
2.346	-10.758	-0.035
2.3465	-10.758	-0.042
2.347	-10.758	-0.036
2.3475	-10.758	-0.040
2.348	-10.758	-0.022
2.3485	-10.758	-0.014
2.349	-10.758	-0.016
2.3495	-10.758	-0.008
2.35	-10.758	-0.007
2.3505	-10.758	-0.006
2.351	-10.758	-0.013
2.3515	-10.758	0.003
2.352	-10.758	-0.001
2.3525	-10.758	-0.002
2.353	-10.758	0.016
2.3535	-10.758	0.015
2.354	-10.758	0.003
2.3545	-10.758	0.004
2.355	-10.758	0.003
2.3555	-10.758	0.007
2.356	-10.758	-0.011
2.3565	-10.758	-0.004
2.357	-10.758	-0.013
2.3575	-10.758	-0.018
2.358	-10.758	-0.035
2.3585	-10.758	-0.051
2.359	-10.758	-0.040
2.3595	-10.758	-0.043
2.36	-10.758	-0.040
2.3605	-10.758	-0.044
2.361	-10.758	-0.054
2.3615	-10.758	-0.055
2.362	-10.758	-0.047
2.3625	-10.758	-0.035
2.363	-10.758	-0.052
2.3635	-10.758	-0.049
2.364	-10.758	-0.028
2.3645	-10.758	-0.014
2.365	-10.758	-0.013
2.3655	-10.758	-0.011
2.366	-10.758	-0.008
2.3665	-10.758	0.001
2.367	-10.758	0.009
2.3675	-10.758	-0.004
2.368	-10.758	-0.007
2.3685	-10.758	-0.011
2.369	-10.758	-0.001
2.3695	-10.758	-0.001
2.37	-10.758	0.013
2.3705	-10.758	0.004
2.371	-10.758	-0.011
2.3715	-10.758	-0.005
2.372	-10.758	0.001
2.3725	-10.758	-0.000
2.373	-10.758	-0.018
2.3735	-10.758	-0.004
2.374	-10.758	-0.020
2.3745	-10.758	-0.034
2.375	-10.758	-0.048
2.3755	-10.758	-0.050
2.376	-10.758	-0.048
2.3765	-10.758	-0.057
2.377	-10.758	-0.057
2.3775	-10.758	-0.054
2.378	-10.758	-0.058
2.3785	-10.758	-0.066
2.379	-10.758	-0.055
2.3795	-10.758	-0.029
2.38	-10.758	-0.034
2.3805	-10.758	-0.032
2.381	-10.758	-0.019
2.3815	-10.758	-0.016
2.382	-10.758	-0.013
2.3825	-10.758	-0.012
2.383	-10.758	-0.004
2.3835	-10.758	0.009
2.384	-10.758	0.011
2.3845	-10.758	0.010
2.385	-10.758	0.009
2.3855	-10.758	0.007
2.386	-10.758	0.006
2.3865	-10.758	0.000
2.387	-10.758	-0.015
2.3875	-10.758	-0.018
2.388	-10.758	-0.022
2.3885	-10.758	-0.014
2.389	-10.758	-0.003
2.3895	-10.758	-0.010
2.39	-10.758	-0.030
2.3905	-10.758	-0.013
2.391	-10.758	-0.029
2.3915	-10.758	-0.041
2.392	-10.758	-0.043
2.3925	-10.758	-0.039
2.393	-10.758	-0.036
2.3935	-10.758	-0.060
2.394	-10.758	-0.046
2.3945	-10.758	-0.056
2.395	-10.758	-0.046
2.3955	-10.758	-0.048
2.396	-10.758	-0.037
2.3965	-10.758	-0.033
2.397	-10.758	-0.048
2.3975	-10.758	-0.033
2.398	-10.758	-0.028
2.3985	-10.758	-0.025
2.399	-10.758	-0.022
2.3995	-10.758	-0.021
2.4	-10.758	-0.005
2.4005	-10.758	0.007
2.401	-10.758	0.000
2.4015	-10.758	-0.004
2.402	-10.758	-0.014
2.4025	-10.758	0.003
2.403	-10.758	0.007
2.4035	-10.758	0.018
2.404	-10.758	0.008
2.4045	-10.758	0.002
2.405	-10.758	-0.005
2.4055	-10.758	-0.003
2.406	-10.758	-0.008
2.4065	-10.758	-0.002
2.407	-10.758	-0.003
2.4075	-10.758	-0.023
2.408	-10.758	-0.040
2.4085	-10.758	-0.058
2.409	-10.758	-0.049
2.4095	-10.758	-0.046
2.41	-10.758	-0.047
2.4105	-10.758	-0.053
2.411	-10.758	-0.049
2.4115	-10.758	-0.061
2.412	-10.758	-0.064
2.4125	-10.758	-0.054
2.413	-10.758	-0.043
2.4135	-10.758	-0.044
2.414	-10.758	-0.051
2.4145	-10.758	-0.028
2.415	-10.758	-0.030
2.4155	-10.758	-0.018
2.416	-10.758	-0.001
2.4165	-10.758	0.001
2.417	-10.758	0.008
2.4175	-10.758	-0.005
2.418	-10.758	0.009
2.4185	-10.758	-0.001
2.419	-10.758	-0.004
2.4195	-10.758	0.004
2.42	-10.758	0.005
2.4205	-10.758	0.016
2.421	-10.758	-0.001
2.4215	-10.758	0.000
2.422	-10.758	-0.003
2.4225	-10.758	-0.014
2.423	-10.758	-0.005
2.4235	-10.758	-0.014
2.424	-10.758	-0.016
2.4245	-10.758	-0.027
2.425	-10.758	-0.044
2.4255	-10.758	-0.046
2.426	-10.758	-0.042
2.4265	-10.758	-0.052
2.427	-10.758	-0.051
2.4275	-10.758	-0.054
2.428	-10.758	-0.056
2.4285	-10.758	-0.052
2.429	-10.758	-0.040
2.4295	-10.758	-0.024
2.43	-10.758	-0.023
2.4305	-10.758	-0.019
2.431	-10.758	-0.027
2.4315	-10.758	-0.019
2.432	-10.758	-0.025
2.4325	-10.758	-0.021
2.433	-10.758	-0.033
2.4335	-10.758	-0.019
2.434	-10.758	-0.015
2.4345	-10.758	-0.032
2.435	-10.758	-0.012
2.4355	-10.758	0.002
2.436	-10.758	0.011
2.4365	-10.758	0.019
2.437	-10.758	0.018
2.4375	-10.758	0.009
2.438	-10.758	-0.010
2.4385	-10.758	0.002
2.439	-10.758	-0.003
2.4395	-10.758	-0.003
2.44	-10.758	-0.007
2.4405	-10.758	-0.016
2.441	-10.758	-0.032
2.4415	-10.758	-0.057
2.442	-10.758	-0.053
2.4425	-10.758	-0.052
2.443	-10.758	-0.054
2.4435	-10.758	-0.067
2.444	-10.758	-0.061
2.4445	-10.758	-0.046
2.445	-10.758	-0.049
2.4455	-10.758	-0.043
2.446	-10.758	-0.032
2.4465	-10.758	-0.034
2.447	-10.758	-0.032
2.4475	-10.758	-0.025
2.448	-10.758	-0.015
2.4485	-10.758	-0.020
2.449	-10.758	-0.020
2.4495	-10.758	-0.017
2.45	-10.758	-0.003
2.4505	-10.758	0.005
2.451	-10.758	0.001
2.4515	-10.758	-0.003
2.452	-10.758	-0.001
2.4525	-10.758	0.006
2.453	-10.758	0.009
2.4535	-10.758	0.005
2.454	-10.758	0.008
2.4545	-10.758	-0.007
2.455	-10.758	-0.015
2.4555	-10.758	-0.004
2.456	-10.758	-0.010
2.4565	-10.758	-0.020
2.457	-10.758	-0.021
2.4575	-10.758	-0.032
2.458	-10.758	-0.033
2.4585	-10.758	-0.049
2.459	-10.758	-0.036
2.4595	-10.758	-0.034
2.46	-10.758	-0.037
2.4605	-10.758	-0.038
2.461	-10.758	-0.042
2.4615	-10.758	-0.044
2.462	-10.758	-0.049
2.4625	-10.758	-0.038
2.463	-10.758	-0.039
2.4635	-10.758	-0.048
2.464	-10.758	-0.041
2.4645	-10.758	-0.026
2.465	-10.758	-0.009
2.4655	-10.758	-0.006
2.466	-10.758	0.000
2.4665	-10.758	0.002
2.467	-10.758	0.002
2.4675	-10.758	-0.005
2.468	-10.758	-0.000
2.4685	-10.758	-0.007
2.469	-10.758	-0.004
2.4695	-10.758	0.011
2.47	-10.758	0.005
2.4705	-10.758	0.003
2.471	-10.758	-0.011
2.4715	-10.758	-0.014
2.472	-10.758	-0.015
2.4725	-10.758	-0.006
2.473	-10.758	-0.010
2.4735	-10.758	-0.011
2.474	-10.758	-0.022
2.4745	-10.758	-0.024
2.475	-10.758	-0.031
2.4755	-10.758	-0.045
2.476	-10.758	-0.037
2.4765	-10.758	-0.037
2.477	-10.758	-0.037
2.4775	-10.758	-0.052
2.478	-10.758	-0.048
2.4785	-10.758	-0.058
2.479	-10.758	-0.052
2.4795	-10.758	-0.047
2.48	-10.758	-0.031
2.4805	-10.758	-0.036
2.481	-10.758	-0.029
2.4815	-10.758	-0.020
2.482	-10.758	-0.016
2.4825	-10.758	-0.014
2.483	-10.758	-0.013
2.4835	-10.758	-0.008
2.484	-10.758	-0.017
2.4845	-10.758	-0.016
2.485	-10.758	-0.010
2.4855	-10.758	-0.006
2.486	-10.758	0.014
2.4865	-10.758	0.018
2.487	-10.758	0.008
2.4875	-10.758	0.007
2.488	-10.758	0.006
2.4885	-10.758	-0.008
2.489	-10.758	-0.003
2.4895	-10.758	0.003
2.49	-10.758	-0.011
2.4905	-10.758	-0.028
2.491	-10.758	-0.043
2.4915	-10.758	-0.044
2.492	-10.758	-0.050
2.4925	-10.758	-0.046
2.493	-10.758	-0.043
2.4935	-10.758	-0.040
2.494	-10.758	-0.044
2.4945	-10.758	-0.046
2.495	-10.758	-0.067
2.4955	-10.758	-0.044
2.496	-10.758	-0.044
2.4965	-10.758	-0.040
2.497	-10.758	-0.037
2.4975	-10.758	-0.035
2.498	-10.758	-0.016
2.4985	-10.758	-0.015
2.499	-10.758	-0.005
2.4995	-10.758	-0.010
2.5	-10.758	0.006
2.5005	-10.758	0.004
2.501	-10.758	-0.006
2.5015	-10.758	-0.013
2.502	-10.758	-0.018
2.5025	-10.758	-0.007
2.503	-10.758	0.001
2.5035	-10.758	0.003
2.504	-10.758	-0.008
2.5045	-10.758	-0.011
2.505	-10.758	-0.008
2.5055	-10.758	-0.006
2.506	-10.758	-0.017
2.5065	-10.758	-0.006
2.507	-10.758	-0.021
2.5075	-10.758	-0.025
2.508	-10.758	-0.039
2.5085	-10.758	-0.040
2.509	-10.758	-0.034
2.5095	-10.758	-0.041
2.51	-10.758	-0.027
2.5105	-10.758	-0.038
2.511	-10.758	-0.040
2.5115	-10.758	-0.050
2.512	-10.758	-0.054
2.5125	-10.758	-0.041
2.513	-10.758	-0.046
2.5135	-10.758	-0.037
2.514	-10.758	-0.039
2.5145	-10.758	-0.039
2.515	-10.758	-0.036
2.5155	-10.758	-0.016
2.516	-10.758	-0.002
2.5165	-10.758	-0.013
2.517	-10.758	0.010
2.5175	-10.758	0.005
2.518	-10.758	0.010
2.5185	-10.758	0.009
2.519	-10.758	-0.005
2.5195	-10.758	-0.002
2.52	-10.758	-0.002
2.5205	-10.758	-0.003
2.521	-10.758	-0.008
2.5215	-10.758	-0.001
2.522	-10.758	-0.007
2.5225	-10.758	-0.009
2.523	-10.758	-0.012
2.5235	-10.758	-0.004
2.524	-10.758	-0.019
2.5245	-10.758	-0.034
2.525	-10.758	-0.053
2.5255	-10.758	-0.047
2.526	-10.758	-0.036
2.5265	-10.758	-0.031
2.527	-10.758	-0.035
2.5275	-10.758	-0.048
2.528	-10.758	-0.063
2.5285	-10.758	-0.053
2.529	-10.758	-0.048
2.5295	-10.758	-0.031
2.53	-10.758	-0.044
2.5305	-10.758	-0.031
2.531	-10.758	-0.023
2.5315	-10.758	-0.013
2.532	-10.758	-0.019
2.5325	-10.756	-0.016
2.533	-10.756	-0.007
2.5335	-10.756	-0.008
2.534	-10.756	0.006
2.5345	-10.756	-0.012
2.535	-10.756	-0.005
2.5355	-10.756	-0.021
2.536	-10.756	-0.002
2.5365	-10.756	0.000
2.537	-10.756	-0.010
2.5375	-10.756	0.000
2.538	-10.756	-0.003
2.5385	-10.756	0.009
2.539	-10.756	0.003
2.5395	-10.756	-0.012
2.54	-10.756	-0.015
2.5405	-10.756	-0.025
2.541	-10.756	-0.037
2.5415	-10.756	-0.034
2.542	-10.756	-0.048
2.5425	-10.756	-0.044
2.543	-10.756	-0.047
2.5435	-10.756	-0.035
2.544	-10.756	-0.041
2.5445	-10.756	-0.054
2.545	-10.756	-0.063
2.5455	-10.756	-0.065
2.546	-10.756	-0.038
2.5465	-10.756	-0.037
2.547	-10.756	-0.038
2.5475	-10.756	-0.038
2.548	-10.756	-0.030
2.5485	-10.756	-0.030
2.549	-10.756	-0.031
2.5495	-10.756	-0.026
2.55	-10.756	-0.002
2.5505	-10.756	-0.003
2.551	-10.756	0.013
2.5515	-10.756	0.004
2.552	-10.756	-0.008
2.5525	-10.756	0.007
2.553	-10.756	0.005
2.5535	-10.756	0.000
2.554	-10.756	-0.005
2.5545	-10.756	0.013
2.555	-10.756	0.000
2.5555	-10.756	-0.025
2.556	-10.756	-0.027
2.5565	-10.756	-0.029
2.557	-10.756	-0.020
2.5575	-10.756	-0.034
2.558	-10.756	-0.026
2.5585	-10.756	-0.053
2.559	-10.756	-0.043
2.5595	-10.756	-0.047
2.56	-10.756	-0.035
2.5605	-10.756	-0.026
2.561	-10.756	-0.041
2.5615	-10.756	-0.050
2.562	-10.756	-0.051
2.5625	-10.756	-0.038
2.563	-10.756	-0.044
2.5635	-10.756	-0.031
2.564	-10.756	-0.024
2.5645	-10.756	-0.020
2.565	-10.756	-0.026
2.5655	-10.756	-0.025
2.566	-10.756	-0.021
2.5665	-10.756	-0.012
2.567	-10.756	-0.007
2.5675	-10.756	-0.011
2.568	-10.756	-0.007
2.5685	-10.756	-0.003
2.569	-10.756	-0.006
2.5695	-10.756	0.005
2.57	-10.756	0.007
2.5705	-10.756	-0.003
2.571	-10.756	-0.028
2.5715	-10.756	-0.012
2.572	-10.756	-0.015
2.5725	-10.756	-0.007
2.573	-10.756	-0.007
2.5735	-10.756	-0.015
2.574	-10.756	-0.017
2.5745	-10.756	-0.039
2.575	-10.756	-0.045
2.5755	-10.756	-0.044
2.576	-10.756	-0.044
2.5765	-10.756	-0.045
2.577	-10.756	-0.041
2.5775	-10.756	-0.031
2.578	-10.756	-0.050
2.5785	-10.756	-0.046
2.579	-10.756	-0.046
2.5795	-10.756	-0.040
2.58	-10.756	-0.048
2.5805	-10.756	-0.042
2.581	-10.756	-0.023
2.5815	-10.756	-0.025
2.582	-10.756	-0.022
2.5825	-10.756	-0.019
2.583	-10.756	-0.021
2.5835	-10.756	0.000
2.584	-10.756	-0.002
2.5845	-10.756	0.002
2.585	-10.756	0.004
2.5855	-10.756	-0.013
2.586	-10.756	-0.001
2.5865	-10.756	0.001
2.587	-10.756	0.011
2.5875	-10.756	0.003
2.588	-10.756	-0.005
2.5885	-10.756	-0.002
2.589	-10.756	-0.017
2.5895	-10.756	-0.017
2.59	-10.756	-0.014
2.5905	-10.756	-0.016
2.591	-10.756	-0.013
2.5915	-10.756	-0.034
2.592	-10.756	-0.040
2.5925	-10.756	-0.039
2.593	-10.756	-0.039
2.5935	-10.756	-0.050
2.594	-10.756	-0.056
2.5945	-10.756	-0.066
2.595	-10.756	-0.077
2.5955	-10.756	-0.058
2.596	-10.756	-0.043
2.5965	-10.756	-0.035
2.597	-10.756	-0.031
2.5975	-10.756	-0.019
2.598	-10.756	-0.007
2.5985	-10.756	-0.025
2.599	-10.756	-0.008
2.5995	-10.756	-0.010
2.6	-10.756	-0.002
2.6005	-10.756	-0.002
2.601	-10.756	-0.001
2.6015	-10.756	0.001
2.602	-10.756	-0.013
2.6025	-10.756	-0.010
2.603	-10.756	-0.002
2.6035	-10.756	-0.006
2.604	-10.756	-0.019
2.6045	-10.756	-0.020
2.605	-10.756	-0.004
2.6055	-10.756	-0.003
2.606	-10.756	-0.009
2.6065	-10.756	-0.007
2.607	-10.756	-0.018
2.6075	-10.756	-0.035
2.608	-10.756	-0.030
2.6085	-10.756	-0.041
2.609	-10.756	-0.027
2.6095	-10.756	-0.040
2.61	-10.756	-0.042
2.6105	-10.756	-0.040
2.611	-10.756	-0.049
2.6115	-10.756	-0.046
2.612	-10.756	-0.060
2.6125	-10.756	-0.039
2.613	-10.756	-0.033
2.6135	-10.756	-0.026
2.614	-10.756	-0.035
2.6145	-10.756	-0.024
2.615	-10.756	-0.026
2.6155	-10.756	-0.028
2.616	-10.756	0.004
2.6165	-10.756	0.010
2.617	-10.756	0.010
2.6175	-10.756	0.006
2.618	-10.756	-0.002
2.6185	-10.756	-0.007
2.619	-10.756	-0.022
2.6195	-10.756	-0.005
2.62	-10.756	-0.007
2.6205	-10.756	-0.011
2.621	-10.756	-0.014
2.6215	-10.756	-0.008
2.622	-10.756	0.005
2.6225	-10.756	0.004
2.623	-10.756	-0.008
2.6235	-10.756	-0.014
2.624	-10.756	-0.020
2.6245	-10.756	-0.020
2.625	-10.756	-0.035
2.6255	-10.756	-0.031
2.626	-10.756	-0.028
2.6265	-10.756	-0.031
2.627	-10.756	-0.039
2.6275	-10.756	-0.042
2.628	-10.756	-0.060
2.6285	-10.756	-0.062
2.629	-10.756	-0.063
2.6295	-10.756	-0.043
2.63	-10.756	-0.052
2.6305	-10.756	-0.048
2.631	-10.756	-0.033
2.6315	-10.756	-0.026
2.632	-10.756	-0.021
2.6325	-10.756	-0.031
2.633	-10.756	-0.002
2.6335	-10.756	0.007
2.634	-10.756	-0.003
2.6345	-10.756	-0.008
2.635	-10.756	-0.013
2.6355	-10.756	-0.005
2.636	-10.756	-0.004
2.6365	-10.756	0.009
2.637	-10.756	0.005
2.6375	-10.756	-0.012
2.638	-10.756	-0.006
2.6385	-10.756	-0.007
2.639	-10.756	-0.003
2.6395	-10.756	-0.015
2.64	-10.756	-0.011
2.6405	-10.756	-0.028
2.641	-10.756	-0.035
2.6415	-10.756	-0.037
2.642	-10.756	-0.053
2.6425	-10.756	-0.030
2.643	-10.756	-0.033
2.6435	-10.756	-0.038
2.644	-10.756	-0.041
2.6445	-10.756	-0.070
2.645	-10.756	-0.062
2.6455	-10.756	-0.055
2.646	-10.756	-0.042
2.6465	-10.756	-0.029
2.647	-10.756	-0.033
2.6475	-10.756	-0.030
2.648	-10.756	-0.028
2.6485	-10.756	-0.021
2.649	-10.756	-0.013
2.6495	-10.756	-0.016
2.65	-10.756	0.009
2.6505	-10.756	-0.004
2.651	-10.756	-0.012
2.6515	-10.756	-0.003
2.652	-10.756	-0.008
2.6525	-10.756	-0.004
2.653	-10.756	-0.013
2.6535	-10.756	-0.013
2.654	-10.756	-0.035
2.6545	-10.756	-0.038
2.655	-10.756	-0.017
2.6555	-10.756	-0.012
2.656	-10.756	0.001
2.6565	-10.756	-0.009
2.657	-10.756	0.000
2.6575	-10.756	-0.022
2.658	-10.756	-0.029
2.6585	-10.756	-0.035
2.659	-10.756	-0.031
2.6595	-10.756	-0.020
2.66	-10.756	-0.036
2.6605	-10.756	-0.043
2.661	-10.756	-0.054
2.6615	-10.756	-0.055
2.662	-10.756	-0.061
2.6625	-10.756	-0.045
2.663	-10.756	-0.030
2.6635	-10.756	-0.045
2.664	-10.756	-0.044
2.6645	-10.756	-0.031
2.665	-10.756	-0.027
2.6655	-10.756	-0.021
2.666	-10.756	-0.023
2.6665	-10.756	-0.022
2.667	-10.756	0.000
2.6675	-10.756	-0.002
2.668	-10.756	0.010
2.6685	-10.756	0.007
2.669	-10.756	-0.004
2.6695	-10.756	0.007
2.67	-10.756	-0.003
2.6705	-10.756	0.008
2.671	-10.756	-0.009
2.6715	-10.756	-0.008
2.672	-10.756	-0.010
2.6725	-10.756	-0.012
2.673	-10.756	-0.006
2.6735	-10.756	-0.022
2.674	-10.756	-0.020
2.6745	-10.756	-0.033
2.675	-10.756	-0.042
2.6755	-10.756	-0.041
2.676	-10.756	-0.036
2.6765	-10.756	-0.035
2.677	-10.756	-0.057
2.6775	-10.756	-0.055
2.678	-10.756	-0.062
2.6785	-10.756	-0.055
2.679	-10.756	-0.038
2.6795	-10.756	-0.030
2.68	-10.756	-0.021
2.6805	-10.756	-0.041
2.681	-10.756	-0.031
2.6815	-10.756	-0.025
2.682	-10.756	-0.020
2.6825	-10.756	-0.010
2.683	-10.756	-0.009
2.6835	-10.756	0.003
2.684	-10.756	-0.006
2.6845	-10.756	-0.005
2.685	-10.756	-0.011
2.6855	-10.756	-0.011
2.686	-10.756	-0.007
2.6865	-10.756	0.001
2.687	-10.756	-0.002
2.6875	-10.756	-0.007
2.688	-10.756	-0.012
2.6885	-10.756	-0.007
